# wavelength(A) luminosity(erg/s/A)
1.000000000000000000e+04 5.710659005703309294e+37
9.997667210984103804e+03 5.718777766775691755e+37
9.995335510095288555e+03 5.726939132923578044e+37
9.993004896572398138e+03 5.735083927831012945e+37
9.990675369654989481e+03 5.743341021112694960e+37
9.988346928583318004e+03 5.751586066071686009e+37
9.986019572598363084e+03 5.759701686013995756e+37
9.983693300941797133e+03 5.767924897514005607e+37
9.981368112856000153e+03 5.776310078191267321e+37
9.979044007584074279e+03 5.778957754362399180e+37
9.976720984369805592e+03 5.775750181150423622e+37
9.974399042457691394e+03 5.767296722537511505e+37
9.972078181092938394e+03 5.758809177801795322e+37
9.969758399521451793e+03 5.751736476985454810e+37
9.967439696989833465e+03 5.741140233145363697e+37
9.965122072745391051e+03 5.731890140524133347e+37
9.962805526036134324e+03 5.722401350080807419e+37
9.960490056110758815e+03 5.711742063447097125e+37
9.958175662218682191e+03 5.698842196539707560e+37
9.955862343609996969e+03 5.686205099743535850e+37
9.953550099535501431e+03 5.673926300015256689e+37
9.951238929246690532e+03 5.662334471268676192e+37
9.948928831995755900e+03 5.647264651611725659e+37
9.946619807035574922e+03 5.635733588423086260e+37
9.944311853619728936e+03 5.622545740861225687e+37
9.942004971002486855e+03 5.609228101505011460e+37
9.939699158438805171e+03 5.596383926236008468e+37
9.937394415184338868e+03 5.584483310466099261e+37
9.935090740495432328e+03 5.572275383956914819e+37
9.932788133629108415e+03 5.558775550454809750e+37
9.930486593843097580e+03 5.545351006963454231e+37
9.928186120395803300e+03 5.533727790496920005e+37
9.925886712546320268e+03 5.520325597814863899e+37
9.923588369554430756e+03 5.507428472309517226e+37
9.921291090680602792e+03 5.493078818294003614e+37
9.918994875185979254e+03 5.478211912176716844e+37
9.916699722332408783e+03 5.462169715898269999e+37
9.914405631382398496e+03 5.441641833527306036e+37
9.912112601599152185e+03 5.413939318362019507e+37
9.909820632246555761e+03 5.387231870870024503e+37
9.907529722589168159e+03 5.359094818628520209e+37
9.905239871892230440e+03 5.333315680434591660e+37
9.902951079421667600e+03 5.308861656712735497e+37
9.900663344444077666e+03 5.287945871551946576e+37
9.898376666226738962e+03 5.265603267665555049e+37
9.896091044037604661e+03 5.242843866675708692e+37
9.893806477145308236e+03 5.221944910799912059e+37
9.891522964819148910e+03 5.198453074257323807e+37
9.889240506329115306e+03 5.175977577782891067e+37
9.886959100945854516e+03 5.154328609462637688e+37
9.884678747940692119e+03 5.133492698061695428e+37
9.882399446585630358e+03 5.114317500433369241e+37
9.880121196153340861e+03 5.095572206431444821e+37
9.877843995917157372e+03 5.076840544377304049e+37
9.875567845151095753e+03 5.058513306690272050e+37
9.873292743129835799e+03 5.040186382041334803e+37
9.871018689128717597e+03 5.022563817284559438e+37
9.868745682423765174e+03 5.008053490043635693e+37
9.866473722291653758e+03 4.994294573976791952e+37
9.864202808009733417e+03 4.981822844264188417e+37
9.861932938856016335e+03 4.970604646042298462e+37
9.859664114109178627e+03 4.961720682612469793e+37
9.857396333048563974e+03 4.953329204572755189e+37
9.855129594954172717e+03 4.943999544686762272e+37
9.852863899106672761e+03 4.936555436825212749e+37
9.850599244787390489e+03 4.930073294666357163e+37
9.848335631278314395e+03 4.925904635525169933e+37
9.846073057862089627e+03 4.921226649856965238e+37
9.843811523822023446e+03 4.918052461279660697e+37
9.841551028442083407e+03 4.914498217103349390e+37
9.839291571006888262e+03 4.911528375994950606e+37
9.837033150801717056e+03 4.908473918796859053e+37
9.834775767112510948e+03 4.905760017232495638e+37
9.832519419225853198e+03 4.904197177144682892e+37
9.830264106428990999e+03 4.901567654135269999e+37
9.828009828009828198e+03 4.899531801649452724e+37
9.825756583256910744e+03 4.895072328928663323e+37
9.823504371459444883e+03 4.890890426359782326e+37
9.821253191907286237e+03 4.885633449870528539e+37
9.819003043890945264e+03 4.880845311903635529e+37
9.816753926701569071e+03 4.876577688961398854e+37
9.814505839630974151e+03 4.870710689977398270e+37
9.812258781971610006e+03 4.865390090163920921e+37
9.810012753016577335e+03 4.859806177143836698e+37
9.807767752059631675e+03 4.853701931752052560e+37
9.805523778395163390e+03 4.847901544777906488e+37
9.803280831318212222e+03 4.842091782302364701e+37
9.801038910124472750e+03 4.835139020372789475e+37
9.798798014110270742e+03 4.828788904513581506e+37
9.796558142572575889e+03 4.821275526441144678e+37
9.794319294809010898e+03 4.813303686190712533e+37
9.792081470117831486e+03 4.803061311192238996e+37
9.789844667797937291e+03 4.793250069668116088e+37
9.787608887148870053e+03 4.782326031835671758e+37
9.785374127470808162e+03 4.770272452813914566e+37
9.783140388064568469e+03 4.758888896076479231e+37
9.780907668231611751e+03 4.745906916932518165e+37
9.778675967274031791e+03 4.731903607689650953e+37
9.776445284494557200e+03 4.716963020773251108e+37
9.774215619196560510e+03 4.701387719461334612e+37
9.771986970684039989e+03 4.685669425103665391e+37
9.769759338261632365e+03 4.667535813781279112e+37
9.767532721234616474e+03 4.648182365663917968e+37
9.765307118908889606e+03 4.628021016220298555e+37
9.763082530590991155e+03 4.613093713185399274e+37
9.760858955588091703e+03 4.601235890019343194e+37
9.758636393207989386e+03 4.589495121121930378e+37
9.756414842759113526e+03 4.577750586328420202e+37
9.754194303550526456e+03 4.566804217350867391e+37
9.751974774891916240e+03 4.555507240080495433e+37
9.749756256093596676e+03 4.543995539555599829e+37
9.747538746466518205e+03 4.532310631934152462e+37
9.745322245322246090e+03 4.520399834104382706e+37
9.743106751972978600e+03 4.508762343208435560e+37
9.740892265731541556e+03 4.497350831172211957e+37
9.738678785911377418e+03 4.484876827698788324e+37
9.736466311826559831e+03 4.471557596691861134e+37
9.734254842791784540e+03 4.459280153290423005e+37
9.732044378122365742e+03 4.449788528386326947e+37
9.729834917134237912e+03 4.447509250629312403e+37
9.727626459143968532e+03 4.446392372132263838e+37
9.725419003468732626e+03 4.446240843438779066e+37
9.723212549426329133e+03 4.446931911172003687e+37
9.721007096335180904e+03 4.447919186655905892e+37
9.718802643514320152e+03 4.449709394007927524e+37
9.716599190283399366e+03 4.454346506335564977e+37
9.714396735962696766e+03 4.460884504879976951e+37
9.712195279873094478e+03 4.470246096762683426e+37
9.709994821336094901e+03 4.480263104988220456e+37
9.707795359673818893e+03 4.490630943964694479e+37
9.705596894208994854e+03 4.501356255543156786e+37
9.703399424264966001e+03 4.513223324946598775e+37
9.701202949165697646e+03 4.526214753007266497e+37
9.699007468235751730e+03 4.542337456734545232e+37
9.696812980800310470e+03 4.561159601385242889e+37
9.694619486185167261e+03 4.577557702545353202e+37
9.692426983716724862e+03 4.595767620201582000e+37
9.690235472721986298e+03 4.613403804451552046e+37
9.688044952528580325e+03 4.632244252046740180e+37
9.685855422464728690e+03 4.654098574300976694e+37
9.683666881859262503e+03 4.676287228967566680e+37
9.681479330041629510e+03 4.701749193081079508e+37
9.679292766341874085e+03 4.727781560417721444e+37
9.677107190090642689e+03 4.754293433818848569e+37
9.674922600619194782e+03 4.781460702605344255e+37
9.672738997259391908e+03 4.809120721110040800e+37
9.670556379343692242e+03 4.837490201221530290e+37
9.668374746205161500e+03 4.867172705954903937e+37
9.666194097177471122e+03 4.899060012809965204e+37
9.664014431594883717e+03 4.929403999675261382e+37
9.661835748792271261e+03 4.958611483137943415e+37
9.659658048105096896e+03 4.987509928738331514e+37
9.657481328869431309e+03 5.016249435261187388e+37
9.655305590421936358e+03 5.045991706096943828e+37
9.653130832099877807e+03 5.075232669814169355e+37
9.650957053241112590e+03 5.105255810064788562e+37
9.648784253184099725e+03 5.135390857877868550e+37
9.646612431267887587e+03 5.164524453276171889e+37
9.644441586832122994e+03 5.193396828527100759e+37
9.642271719217049395e+03 5.222376055686050189e+37
9.640102827763495952e+03 5.251948017978686534e+37
9.637934911812893915e+03 5.280852469254962082e+37
9.635767970707265704e+03 5.310447687658966296e+37
9.633602003789217633e+03 5.339315818762428112e+37
9.631437010401950829e+03 5.367991677632437946e+37
9.629272989889263044e+03 5.396501988814896612e+37
9.627109941595532291e+03 5.424205787463459587e+37
9.624947864865731390e+03 5.451251792755223748e+37
9.622786759045420695e+03 5.477778606306541985e+37
9.620626623480744456e+03 5.505015670408106390e+37
9.618467457518434458e+03 5.531101051752061218e+37
9.616309260505819111e+03 5.557233905947848725e+37
9.614152031790797992e+03 5.582827448027925987e+37
9.611995770721860026e+03 5.607596518268812871e+37
9.609840476648087133e+03 5.632993728155011879e+37
9.607686148919137850e+03 5.657576637754950921e+37
9.605532786885245514e+03 5.682329220069491527e+37
9.603380389897243731e+03 5.706408152274255363e+37
9.601228957306537268e+03 5.730035749153077945e+37
9.599078488465107512e+03 5.753489651290726512e+37
9.596928982725527021e+03 5.775865327905769277e+37
9.594780439440944974e+03 5.799320422623201279e+37
9.592632857965083531e+03 5.821813111835365421e+37
9.590486237652250566e+03 5.844583610935999643e+37
9.588340577857325115e+03 5.865541781909941617e+37
9.586195877935771932e+03 5.886044743685458585e+37
9.584052137243626930e+03 5.905244814532649155e+37
9.581909355137500825e+03 5.923075430941462906e+37
9.579767530974582769e+03 5.941171014188108785e+37
9.577626664112633080e+03 5.957868200322462423e+37
9.575486753909990512e+03 5.973553962576798801e+37
9.573347799725563164e+03 5.987667957503977007e+37
9.571209800918835754e+03 6.002593556163246650e+37
9.569072756849862344e+03 6.016032531161675447e+37
9.566936666879264521e+03 6.029679862959791063e+37
9.564801530368245949e+03 6.040663530671693242e+37
9.562667346678568720e+03 6.050954986732642520e+37
9.560534115172567908e+03 6.060307682858119687e+37
9.558401835213153390e+03 6.067334650983647677e+37
9.556270506163793470e+03 6.073900644533009655e+37
9.554140127388534893e+03 6.080863624017247016e+37
9.552010698251982831e+03 6.087734239468059698e+37
9.549882218119309982e+03 6.093831277668251362e+37
9.547754686356256570e+03 6.099552210675949781e+37
9.545628102329132162e+03 6.105170082217067264e+37
9.543502465404802933e+03 6.111282795397085673e+37
9.541377774950702587e+03 6.117528574856245833e+37
9.539254030334828713e+03 6.124973482342515263e+37
9.537131230925739146e+03 6.132295802311011520e+37
9.535009376092551975e+03 6.113289246136488327e+37
9.532888465204956447e+03 6.094093434536371078e+37
9.530768497633192965e+03 6.060836525795629549e+37
9.528649472748062180e+03 6.027530700940790794e+37
9.526531389920930451e+03 5.992179469021038126e+37
9.524414248523715287e+03 5.947420790941963768e+37
9.522298047928899905e+03 5.901849898900594205e+37
9.520182787509520494e+03 5.853940869484883511e+37
9.518068466639169856e+03 5.796564285067840858e+37
9.515955084691999218e+03 5.743974588457858080e+37
9.513842641042716423e+03 5.678259121798882258e+37
9.511731135066582283e+03 5.617771312775883853e+37
9.509620566139410585e+03 5.549905972239575977e+37
9.507510933637573544e+03 5.474299490720646765e+37
9.505402236937994530e+03 5.397594310437796390e+37
9.503294475418144430e+03 5.322910211734935652e+37
9.501187648456058014e+03 5.242026738581356769e+37
9.499081755430310295e+03 5.154043123440536825e+37
9.496976795720029259e+03 5.069711550548282786e+37
9.494872768704899499e+03 4.978295558228109575e+37
9.492769673765149491e+03 4.881782198245841235e+37
9.490667510281555224e+03 4.779193401764543047e+37
9.488566277635449296e+03 4.674947169301981059e+37
9.486465975208702730e+03 4.571862348317199348e+37
9.484366602383737700e+03 4.463802089034978725e+37
9.482268158543523896e+03 4.352370235343600127e+37
9.480170643071576706e+03 4.233329158143013957e+37
9.478074055351951756e+03 4.110325369609979132e+37
9.475978394769259467e+03 3.992170142842461332e+37
9.473883660708646858e+03 3.933699161471842216e+37
9.471789852555803009e+03 3.894244021813591184e+37
9.469696969696969973e+03 3.858710787561284483e+37
9.467605011518920946e+03 3.825965007217925611e+37
9.465513977408973005e+03 3.796615125160525174e+37
9.463423866754992559e+03 3.769583589720160927e+37
9.461334678945377163e+03 3.745783211868972623e+37
9.459246413369068250e+03 3.726287583139666708e+37
9.457159069415547492e+03 3.709699805703130556e+37
9.455072646474834983e+03 3.696140803683012982e+37
9.452987143937483779e+03 3.684897299940572167e+37
9.450902561194594455e+03 3.670921832610403682e+37
9.448818897637795089e+03 3.660018016964572899e+37
9.446736152659255822e+03 3.654338809193021392e+37
9.444654325651681575e+03 3.651707888568977053e+37
9.442573416008310232e+03 3.656331677020135575e+37
9.440493423122914464e+03 3.671621909000666185e+37
9.438414346389807179e+03 3.689798967552862937e+37
9.436336185203825153e+03 3.712086111728054473e+37
9.434258938960343585e+03 3.736761719601451852e+37
9.432182607055272456e+03 3.761777309211394766e+37
9.430107188885047435e+03 3.795185970431497892e+37
9.428032683846637156e+03 3.833715066624678247e+37
9.425959091337543214e+03 3.883552797293642944e+37
9.423886410755796533e+03 3.942015988028704151e+37
9.421814641499951904e+03 4.004269451920302364e+37
9.419743782969102540e+03 4.065721924756720397e+37
9.417673834562863703e+03 4.121603977269412061e+37
9.415604795681376345e+03 4.176778007064851914e+37
9.413536665725312560e+03 4.236395445108221041e+37
9.411469444095871950e+03 4.305574301704669577e+37
9.409403130194774349e+03 4.371060228311908039e+37
9.407337723424270735e+03 4.427439144553640986e+37
9.405273223187134136e+03 4.474463359496365908e+37
9.403209628886659630e+03 4.515183413126492383e+37
9.401146939926671621e+03 4.553862910770898169e+37
9.399085155711511106e+03 4.589954680033312292e+37
9.397024275646044771e+03 4.620516462157748271e+37
9.394964299135663168e+03 4.648606704257498662e+37
9.392905225586275265e+03 4.668423985013207990e+37
9.390847054404306618e+03 4.681239125012387627e+37
9.388789784996713934e+03 4.691816905409267120e+37
9.386733416770965050e+03 4.711154205991962067e+37
9.384677949135044400e+03 4.727211402209672651e+37
9.382623381497467562e+03 4.744074503272956920e+37
9.380569713267253974e+03 4.760226066443477903e+37
9.378516943853945122e+03 4.771427763090317078e+37
9.376465072667604545e+03 4.779706481638813302e+37
9.374414099118805098e+03 4.784961715753567982e+37
9.372364022618638046e+03 4.786687527865318489e+37
9.370314842578711250e+03 4.788959953796916308e+37
9.368266558411141887e+03 4.792411155638296344e+37
9.366219169528567363e+03 4.794841212579303192e+37
9.364172675344132585e+03 4.794395364114499826e+37
9.362127075271502690e+03 4.791143561445839447e+37
9.360082368724844855e+03 4.786947941905598526e+37
9.358038555118846489e+03 4.782003114767335947e+37
9.355995633868704317e+03 4.774908021652261976e+37
9.353953604390122564e+03 4.769587551253709932e+37
9.351912466099316589e+03 4.763973155980985485e+37
9.349872218413016526e+03 4.755271529916759233e+37
9.347832860748449093e+03 4.743483691476968356e+37
9.345794392523364877e+03 4.729260958247802532e+37
9.343756813156009230e+03 4.717397186926755396e+37
9.341720122065142277e+03 4.704239151260508393e+37
9.339684318670028006e+03 4.692887845408800881e+37
9.337649402390439718e+03 4.690010252899770618e+37
9.335615372646647302e+03 4.695661436072248208e+37
9.333582228859437237e+03 4.703207172366375521e+37
9.331549970450092587e+03 4.711448329178304197e+37
9.329518596840402097e+03 4.724351841432073745e+37
9.327488107452663826e+03 4.739507012886164108e+37
9.325458501709668781e+03 4.757960477004323466e+37
9.323429779034713647e+03 4.776103234889042076e+37
9.321401938851602608e+03 4.792993703028456196e+37
9.319374980584636432e+03 4.810294992846792714e+37
9.317348903658610652e+03 4.826246656864096502e+37
9.315323707498835574e+03 4.841819400949037800e+37
9.313299391531107176e+03 4.854489941973524628e+37
9.311275955181725294e+03 4.867711300622333131e+37
9.309253397877489988e+03 4.882250827174300646e+37
9.307231719045699720e+03 4.897490713211914827e+37
9.305210918114144079e+03 4.913110629614753700e+37
9.303190994511116514e+03 4.929289887804227656e+37
9.301171947665405241e+03 4.946190929547245073e+37
9.299153777006291421e+03 4.964395073204209434e+37
9.297136481963554616e+03 4.982901215268967019e+37
9.295120061967467336e+03 5.001969970714679816e+37
9.293104516448793220e+03 5.023453850465842130e+37
9.291089844838799763e+03 5.045979127946051190e+37
9.289076046569234677e+03 5.073049175599955352e+37
9.287063121072345893e+03 5.100237986508438084e+37
9.285051067780872472e+03 5.130026674396389067e+37
9.283039886128044600e+03 5.159572276021264874e+37
9.281029575547579952e+03 5.185775814523128168e+37
9.279020135473694609e+03 5.211209997314972839e+37
9.277011565341084861e+03 5.237815178035805288e+37
9.275003864584943585e+03 5.266331371896084399e+37
9.272997032640949328e+03 5.291592098185312189e+37
9.270991068945271763e+03 5.313797229118991947e+37
9.268985972934560778e+03 5.336909951808715641e+37
9.266981744045964660e+03 5.358330780083471140e+37
9.264978381717110096e+03 5.376944320155052052e+37
9.262975885386111258e+03 5.393924260540259754e+37
9.260974254491571628e+03 5.410035525006428034e+37
9.258973488472578538e+03 5.427778307282115835e+37
9.256973586768697714e+03 5.442258353620402272e+37
9.254974548819991469e+03 5.453672490811268096e+37
9.252976374066993230e+03 5.464031707770201392e+37
9.250979061950722098e+03 5.476066487689546786e+37
9.248982611912690118e+03 5.490310673244353191e+37
9.246987023394876815e+03 5.502174745160440019e+37
9.244992295839752842e+03 5.513975944558721926e+37
9.242998428690267247e+03 5.524836987893849282e+37
9.241005421389847470e+03 5.534334097668010737e+37
9.239013273382401167e+03 5.543954942852346897e+37
9.237021984112321661e+03 5.550623322055014475e+37
9.235031553024473396e+03 5.555930778720200265e+37
9.233041979564199210e+03 5.560096269565669248e+37
9.231053263177327608e+03 5.563727437573483462e+37
9.229065403310158217e+03 5.562358259938130138e+37
9.227078399409465419e+03 5.559422618652529160e+37
9.225092250922509265e+03 5.554044532484335337e+37
9.223106957297015470e+03 5.547308293823654560e+37
9.221122517981188139e+03 5.549665126527838682e+37
9.219138932423711594e+03 5.553428679976312189e+37
9.217156200073737637e+03 5.557328408529026795e+37
9.215174320380892823e+03 5.557949563440709398e+37
9.213193292795283924e+03 5.557736194407629579e+37
9.211213116767479733e+03 5.555057905424273999e+37
9.209233791748525618e+03 5.549255813492678184e+37
9.207255317189945345e+03 5.544181511267265454e+37
9.205277692543724697e+03 5.536575080808503993e+37
9.203300917262324219e+03 5.528278730122400356e+37
9.201324990798675572e+03 5.512956920218271021e+37
9.199349912606176076e+03 5.493587904564069729e+37
9.197375682138695993e+03 5.475545201262394577e+37
9.195402298850574880e+03 5.456626727866444105e+37
9.193429762196616139e+03 5.437730509872026604e+37
9.191458071632096107e+03 5.416264170026339938e+37
9.189487226612754966e+03 5.397014755163688004e+37
9.187517226594800377e+03 5.376337246068990532e+37
9.185548071034903842e+03 5.353833392655075497e+37
9.183579759390209801e+03 5.328937219147476513e+37
9.181612291118321082e+03 5.302049356693508465e+37
9.179645665677304351e+03 5.278107258722349007e+37
9.177679882525697394e+03 5.256683995775422272e+37
9.175714941122496384e+03 5.237090585601584738e+37
9.173750840927159516e+03 5.213951837076232974e+37
9.171787581399614282e+03 5.191052786785355489e+37
9.169825162000244745e+03 5.175224581360621188e+37
9.167863582189896988e+03 5.172196913810098311e+37
9.165902841429880937e+03 5.166796469496556084e+37
9.163942939181966722e+03 5.161981590634831270e+37
9.161983874908379221e+03 5.154820252996198342e+37
9.160025648071814430e+03 5.144453491174204978e+37
9.158068258135417636e+03 5.132815744958099269e+37
9.156111704562794330e+03 5.117719548357855062e+37
9.154155986818015663e+03 5.102305172398892843e+37
9.152201104365600258e+03 5.087584235866381245e+37
9.150247056670528764e+03 5.071818841223940666e+37
