# wavelength(A) luminosity(erg/s/A)
1.000000000000000000e+04 3.377785739855049040e+37
9.997667210984103804e+03 3.386135706196245211e+37
9.995335510095288555e+03 3.394416538746308676e+37
9.993004896572398138e+03 3.402728444488724478e+37
9.990675369654989481e+03 3.411426153514196151e+37
9.988346928583318004e+03 3.413646217347811158e+37
9.986019572598363084e+03 3.385124336913091686e+37
9.983693300941797133e+03 3.342242052363212635e+37
9.981368112856000153e+03 3.288328080269268504e+37
9.979044007584074279e+03 3.238009925917770679e+37
9.976720984369805592e+03 3.177308688294167763e+37
9.974399042457691394e+03 3.111355150616169987e+37
9.972078181092938394e+03 3.041858798905143268e+37
9.969758399521451793e+03 2.971494759558191159e+37
9.967439696989833465e+03 2.901154821355320604e+37
9.965122072745391051e+03 2.834735872362402104e+37
9.962805526036134324e+03 2.771407249181116678e+37
9.960490056110758815e+03 2.689703647071180869e+37
9.958175662218682191e+03 2.612942446003918960e+37
9.955862343609996969e+03 2.543270667711421864e+37
9.953550099535501431e+03 2.481451541783755941e+37
9.951238929246690532e+03 2.428589895410558057e+37
9.948928831995755900e+03 2.374116469669660886e+37
9.946619807035574922e+03 2.335773261150454951e+37
9.944311853619728936e+03 2.293620887697304920e+37
9.942004971002486855e+03 2.262783448046221751e+37
9.939699158438805171e+03 2.231247031704953885e+37
9.937394415184338868e+03 2.201377360287394099e+37
9.935090740495432328e+03 2.183622081614645580e+37
9.932788133629108415e+03 2.161460370917056069e+37
9.930486593843097580e+03 2.140981955906988306e+37
9.928186120395803300e+03 2.120751822986564527e+37
9.925886712546320268e+03 2.101382944269698643e+37
9.923588369554430756e+03 2.086907923765237915e+37
9.921291090680602792e+03 2.073140109716036072e+37
9.918994875185979254e+03 2.056406605410235953e+37
9.916699722332408783e+03 2.041848417436219107e+37
9.914405631382398496e+03 2.027742191164132454e+37
9.912112601599152185e+03 2.016953922496256965e+37
9.909820632246555761e+03 2.009691023420039045e+37
9.907529722589168159e+03 2.002145669381121107e+37
9.905239871892230440e+03 1.998806121591844910e+37
9.902951079421667600e+03 1.996491308167592191e+37
9.900663344444077666e+03 1.997167049587267521e+37
9.898376666226738962e+03 1.999985758133301211e+37
9.896091044037604661e+03 2.003997781676709778e+37
9.893806477145308236e+03 2.010557952115209317e+37
9.891522964819148910e+03 2.017809976979362337e+37
9.889240506329115306e+03 2.026976981175341774e+37
9.886959100945854516e+03 2.037013877215937718e+37
9.884678747940692119e+03 2.047402550992494318e+37
9.882399446585630358e+03 2.058971309774381300e+37
9.880121196153340861e+03 2.071009404651235846e+37
9.877843995917157372e+03 2.084023915716681103e+37
9.875567845151095753e+03 2.097082990031823974e+37
9.873292743129835799e+03 2.109903571284262460e+37
9.871018689128717597e+03 2.123213185694977656e+37
9.868745682423765174e+03 2.136050609546209784e+37
9.866473722291653758e+03 2.148551314946405588e+37
9.864202808009733417e+03 2.159893190370882739e+37
9.861932938856016335e+03 2.170746263845837025e+37
9.859664114109178627e+03 2.180478056812560906e+37
9.857396333048563974e+03 2.190317498085822059e+37
9.855129594954172717e+03 2.199769462302065424e+37
9.852863899106672761e+03 2.209503697939299238e+37
9.850599244787390489e+03 2.217849925556329053e+37
9.848335631278314395e+03 2.225365550028821708e+37
9.846073057862089627e+03 2.232072412445858766e+37
9.843811523822023446e+03 2.238419279795133657e+37
9.841551028442083407e+03 2.245076803721556545e+37
9.839291571006888262e+03 2.250887288847762139e+37
9.837033150801717056e+03 2.254263617290247858e+37
9.834775767112510948e+03 2.254061420907262320e+37
9.832519419225853198e+03 2.247277078984839862e+37
9.830264106428990999e+03 2.233993084291111525e+37
9.828009828009828198e+03 2.216385070125641907e+37
9.825756583256910744e+03 2.192610003304180484e+37
9.823504371459444883e+03 2.163565673347977237e+37
9.821253191907286237e+03 2.132143449829197727e+37
9.819003043890945264e+03 2.096680486059710310e+37
9.816753926701569071e+03 2.053291211769802325e+37
9.814505839630974151e+03 2.004397029442833888e+37
9.812258781971610006e+03 1.953487016934629804e+37
9.810012753016577335e+03 1.912587308135217082e+37
9.807767752059631675e+03 1.889792772502267562e+37
9.805523778395163390e+03 1.874046503778471723e+37
9.803280831318212222e+03 1.860610811078048939e+37
9.801038910124472750e+03 1.850785866912722967e+37
9.798798014110270742e+03 1.839872681343014811e+37
9.796558142572575889e+03 1.828118013056855709e+37
9.794319294809010898e+03 1.813887748760200860e+37
9.792081470117831486e+03 1.799952947439845873e+37
9.789844667797937291e+03 1.782804794477984498e+37
9.787608887148870053e+03 1.766240814153372433e+37
9.785374127470808162e+03 1.745387124696554292e+37
9.783140388064568469e+03 1.720458598875069254e+37
9.780907668231611751e+03 1.699191160436374043e+37
9.778675967274031791e+03 1.675931312340762229e+37
9.776445284494557200e+03 1.665527639995427659e+37
9.774215619196560510e+03 1.661553133524600519e+37
9.771986970684039989e+03 1.657345558819576427e+37
9.769759338261632365e+03 1.663520514012139801e+37
9.767532721234616474e+03 1.671647189418184406e+37
9.765307118908889606e+03 1.680938157741342801e+37
9.763082530590991155e+03 1.689642367085940015e+37
9.760858955588091703e+03 1.702507870138544294e+37
9.758636393207989386e+03 1.713943236591503275e+37
9.756414842759113526e+03 1.730973543382439457e+37
9.754194303550526456e+03 1.745847422489136315e+37
9.751974774891916240e+03 1.760601639814955635e+37
9.749756256093596676e+03 1.779791967494789904e+37
9.747538746466518205e+03 1.793368933467091301e+37
9.745322245322246090e+03 1.805653983150771796e+37
9.743106751972978600e+03 1.814718819356079178e+37
9.740892265731541556e+03 1.821520730064894230e+37
9.738678785911377418e+03 1.829573410500850637e+37
9.736466311826559831e+03 1.839976484851262056e+37
9.734254842791784540e+03 1.849474089101533983e+37
9.732044378122365742e+03 1.857214717298493547e+37
9.729834917134237912e+03 1.862130705590848676e+37
9.727626459143968532e+03 1.868588728719134998e+37
9.725419003468732626e+03 1.877863101427257913e+37
9.723212549426329133e+03 1.885326588628864527e+37
9.721007096335180904e+03 1.892292501051573824e+37
9.718802643514320152e+03 1.896909099718552238e+37
9.716599190283399366e+03 1.903217830034547948e+37
9.714396735962696766e+03 1.909864241182665443e+37
9.712195279873094478e+03 1.916024401829552145e+37
9.709994821336094901e+03 1.921564669524544307e+37
9.707795359673818893e+03 1.925103219458349356e+37
9.705596894208994854e+03 1.930392900275796038e+37
9.703399424264966001e+03 1.934999325521331126e+37
9.701202949165697646e+03 1.939482377666472959e+37
9.699007468235751730e+03 1.943241163251484612e+37
9.696812980800310470e+03 1.946273241342664862e+37
9.694619486185167261e+03 1.950509879781330957e+37
9.692426983716724862e+03 1.953860742532092498e+37
9.690235472721986298e+03 1.957890618085599157e+37
9.688044952528580325e+03 1.961026299431589580e+37
9.685855422464728690e+03 1.963585753651949594e+37
9.683666881859262503e+03 1.967488442935358242e+37
9.681479330041629510e+03 1.970830507279952516e+37
9.679292766341874085e+03 1.974950987367965858e+37
9.677107190090642689e+03 1.978619738861148844e+37
9.674922600619194782e+03 1.981929515248245535e+37
9.672738997259391908e+03 1.985768947674630516e+37
9.670556379343692242e+03 1.988877786677054611e+37
9.668374746205161500e+03 1.992194331955712351e+37
9.666194097177471122e+03 1.995345759226145305e+37
9.664014431594883717e+03 1.998656380257394409e+37
9.661835748792271261e+03 2.002351664732205621e+37
9.659658048105096896e+03 2.006276085470473336e+37
9.657481328869431309e+03 2.010764345169366765e+37
9.655305590421936358e+03 2.015040664151613781e+37
9.653130832099877807e+03 2.019499757669035661e+37
9.650957053241112590e+03 2.023575430594216640e+37
9.648784253184099725e+03 2.028014963797738445e+37
9.646612431267887587e+03 2.033196538635384428e+37
9.644441586832122994e+03 2.039142037935226017e+37
9.642271719217049395e+03 2.045668376692546103e+37
9.640102827763495952e+03 2.052674177563362315e+37
9.637934911812893915e+03 2.059874472410074296e+37
9.635767970707265704e+03 2.068055648352312968e+37
9.633602003789217633e+03 2.076887514456793144e+37
9.631437010401950829e+03 2.086713425658638363e+37
9.629272989889263044e+03 2.097556751992309228e+37
9.627109941595532291e+03 2.110399265156416580e+37
9.624947864865731390e+03 2.123773271378834496e+37
9.622786759045420695e+03 2.136592399521777549e+37
9.620626623480744456e+03 2.150173232849938029e+37
9.618467457518434458e+03 2.164407984292838984e+37
9.616309260505819111e+03 2.179746778198828735e+37
9.614152031790797992e+03 2.195519091107793179e+37
9.611995770721860026e+03 2.212738238550036845e+37
9.609840476648087133e+03 2.230615080261804537e+37
9.607686148919137850e+03 2.248752755313723366e+37
9.605532786885245514e+03 2.267726620537045947e+37
9.603380389897243731e+03 2.288909279907423948e+37
9.601228957306537268e+03 2.315265876967649881e+37
9.599078488465107512e+03 2.346045158874386879e+37
9.596928982725527021e+03 2.378676189887714767e+37
9.594780439440944974e+03 2.412654111444462669e+37
9.592632857965083531e+03 2.446588418445773793e+37
9.590486237652250566e+03 2.480742616828090291e+37
9.588340577857325115e+03 2.515939523300939705e+37
9.586195877935771932e+03 2.550995423730723663e+37
9.584052137243626930e+03 2.586522574246333812e+37
9.581909355137500825e+03 2.621509510113692003e+37
9.579767530974582769e+03 2.656453952743557281e+37
9.577626664112633080e+03 2.691502667885696256e+37
9.575486753909990512e+03 2.725266050705710175e+37
9.573347799725563164e+03 2.758389839517336896e+37
9.571209800918835754e+03 2.790190270202757613e+37
9.569072756849862344e+03 2.819666214586903814e+37
9.566936666879264521e+03 2.847664720694334333e+37
9.564801530368245949e+03 2.874840550743602507e+37
9.562667346678568720e+03 2.901173782828227723e+37
9.560534115172567908e+03 2.917893802912006700e+37
9.558401835213153390e+03 2.929281954360556185e+37
9.556270506163793470e+03 2.936594129721527724e+37
9.554140127388534893e+03 2.937979138786684420e+37
9.552010698251982831e+03 2.936842093877528544e+37
9.549882218119309982e+03 2.936118986893543288e+37
9.547754686356256570e+03 2.935098386779629111e+37
9.545628102329132162e+03 2.933837127674077858e+37
9.543502465404802933e+03 2.908044771964043600e+37
9.541377774950702587e+03 2.855367065385330268e+37
9.539254030334828713e+03 2.777934383854338011e+37
9.537131230925739146e+03 2.680997115039710875e+37
9.535009376092551975e+03 2.566460656080590670e+37
9.532888465204956447e+03 2.434192700078108262e+37
9.530768497633192965e+03 2.292279018107789694e+37
9.528649472748062180e+03 2.136259609143587725e+37
9.526531389920930451e+03 1.965800860899709223e+37
9.524414248523715287e+03 1.781009327950602049e+37
9.522298047928899905e+03 1.586933106201366891e+37
9.520182787509520494e+03 1.436167336260426903e+37
9.518068466639169856e+03 1.349369917650113523e+37
9.515955084691999218e+03 1.293655758024701608e+37
9.513842641042716423e+03 1.254908044751451987e+37
9.511731135066582283e+03 1.232294175782100449e+37
9.509620566139410585e+03 1.225395522866991977e+37
9.507510933637573544e+03 1.227701461742576941e+37
9.505402236937994530e+03 1.240612110986099245e+37
9.503294475418144430e+03 1.263485299295638449e+37
9.501187648456058014e+03 1.291483299547920134e+37
9.499081755430310295e+03 1.324224225509779055e+37
9.496976795720029259e+03 1.371405084252301489e+37
9.494872768704899499e+03 1.420752369583863886e+37
9.492769673765149491e+03 1.482978641309041346e+37
9.490667510281555224e+03 1.546478261985823385e+37
9.488566277635449296e+03 1.597140197419778414e+37
9.486465975208702730e+03 1.641553765020325615e+37
9.484366602383737700e+03 1.678100434584996716e+37
9.482268158543523896e+03 1.712222325841779661e+37
9.480170643071576706e+03 1.753957974759000599e+37
9.478074055351951756e+03 1.798465231963369757e+37
9.475978394769259467e+03 1.841246107294094772e+37
9.473883660708646858e+03 1.873481686743499686e+37
9.471789852555803009e+03 1.904045165133334617e+37
9.469696969696969973e+03 1.942218391920870115e+37
9.467605011518920946e+03 1.982217788280358762e+37
9.465513977408973005e+03 2.022520418315888687e+37
9.463423866754992559e+03 2.056352103324908757e+37
9.461334678945377163e+03 2.095685181799837058e+37
9.459246413369068250e+03 2.133795663951787036e+37
9.457159069415547492e+03 2.171077931616640817e+37
9.455072646474834983e+03 2.199930689780541063e+37
9.452987143937483779e+03 2.217017283306905597e+37
9.450902561194594455e+03 2.227214882852920832e+37
9.448818897637795089e+03 2.234835675432346234e+37
9.446736152659255822e+03 2.242023722070860376e+37
9.444654325651681575e+03 2.241599024852191739e+37
9.442573416008310232e+03 2.232113055055635862e+37
9.440493423122914464e+03 2.218425286455323322e+37
9.438414346389807179e+03 2.199120067773180753e+37
9.436336185203825153e+03 2.174595199820744757e+37
9.434258938960343585e+03 2.139687702130596688e+37
9.432182607055272456e+03 2.122063241671006686e+37
9.430107188885047435e+03 2.111307408431757272e+37
9.428032683846637156e+03 2.103094759617567615e+37
9.425959091337543214e+03 2.097621179562855685e+37
9.423886410755796533e+03 2.095170667809852724e+37
9.421814641499951904e+03 2.090670360028966876e+37
9.419743782969102540e+03 2.080715332344744774e+37
9.417673834562863703e+03 2.070788440303019993e+37
9.415604795681376345e+03 2.064413097768230318e+37
9.413536665725312560e+03 2.069754418286351676e+37
9.411469444095871950e+03 2.079126850323946297e+37
9.409403130194774349e+03 2.088759464945668235e+37
9.407337723424270735e+03 2.099864642433414706e+37
9.405273223187134136e+03 2.112006291885495080e+37
9.403209628886659630e+03 2.115417802442078721e+37
9.401146939926671621e+03 2.103849508743213216e+37
9.399085155711511106e+03 2.084577818691673813e+37
9.397024275646044771e+03 2.049044489306524569e+37
9.394964299135663168e+03 2.013216772688164504e+37
9.392905225586275265e+03 1.971652778431875130e+37
9.390847054404306618e+03 1.924440531093691118e+37
9.388789784996713934e+03 1.867955517167403736e+37
9.386733416770965050e+03 1.801773541711014197e+37
9.384677949135044400e+03 1.732029523940958231e+37
9.382623381497467562e+03 1.669491561102993707e+37
9.380569713267253974e+03 1.629142857596962659e+37
9.378516943853945122e+03 1.597647841707006956e+37
9.376465072667604545e+03 1.572252535144808301e+37
9.374414099118805098e+03 1.573416860843399706e+37
9.372364022618638046e+03 1.578356104402244353e+37
9.370314842578711250e+03 1.590169219160976543e+37
9.368266558411141887e+03 1.601434013316140095e+37
9.366219169528567363e+03 1.621352930540839753e+37
9.364172675344132585e+03 1.641203540774350756e+37
9.362127075271502690e+03 1.667532868590574466e+37
9.360082368724844855e+03 1.697525385033183743e+37
9.358038555118846489e+03 1.726923898997965031e+37
9.355995633868704317e+03 1.761426837619920300e+37
9.353953604390122564e+03 1.795861178980562480e+37
9.351912466099316589e+03 1.827422535397028930e+37
9.349872218413016526e+03 1.854456476981454995e+37
9.347832860748449093e+03 1.878358150515287672e+37
9.345794392523364877e+03 1.898513055968672121e+37
9.343756813156009230e+03 1.920888747102392394e+37
9.341720122065142277e+03 1.944028844670965799e+37
9.339684318670028006e+03 1.960362608740328166e+37
9.337649402390439718e+03 1.977881329200517046e+37
9.335615372646647302e+03 1.993470117243109875e+37
9.333582228859437237e+03 2.009243876655975698e+37
9.331549970450092587e+03 2.026827677778540572e+37
9.329518596840402097e+03 2.037206085845400063e+37
9.327488107452663826e+03 2.048200728215265351e+37
9.325458501709668781e+03 2.058036213097670560e+37
9.323429779034713647e+03 2.070368669000274609e+37
9.321401938851602608e+03 2.078892881122558312e+37
9.319374980584636432e+03 2.087942244219003891e+37
9.317348903658610652e+03 2.094343620931731369e+37
9.315323707498835574e+03 2.093793138135154139e+37
9.313299391531107176e+03 2.099904578730117512e+37
9.311275955181725294e+03 2.105067517251572053e+37
9.309253397877489988e+03 2.111452953308740183e+37
9.307231719045699720e+03 2.115430448787499549e+37
9.305210918114144079e+03 2.120277153231382157e+37
9.303190994511116514e+03 2.126648663065775792e+37
9.301171947665405241e+03 2.132039636619110635e+37
9.299153777006291421e+03 2.138258576657442014e+37
9.297136481963554616e+03 2.142146649818451726e+37
9.295120061967467336e+03 2.147943955156845539e+37
9.293104516448793220e+03 2.162004619502957648e+37
9.291089844838799763e+03 2.178710174932676454e+37
9.289076046569234677e+03 2.192281049040830977e+37
9.287063121072345893e+03 2.202451146023211216e+37
9.285051067780872472e+03 2.214138160512010774e+37
9.283039886128044600e+03 2.222128989899889507e+37
9.281029575547579952e+03 2.229679412212185613e+37
9.279020135473694609e+03 2.234022523048681972e+37
9.277011565341084861e+03 2.237287948007424222e+37
9.275003864584943585e+03 2.240263314772495950e+37
9.272997032640949328e+03 2.243595199819275719e+37
9.270991068945271763e+03 2.249550248414665043e+37
9.268985972934560778e+03 2.256540756327501061e+37
9.266981744045964660e+03 2.267362988658725719e+37
9.264978381717110096e+03 2.295053608328642604e+37
9.262975885386111258e+03 2.324179514403459399e+37
9.260974254491571628e+03 2.353673184579866066e+37
9.258973488472578538e+03 2.382501987027161692e+37
9.256973586768697714e+03 2.407699899399170714e+37
9.254974548819991469e+03 2.430659857289349070e+37
9.252976374066993230e+03 2.448322649133968481e+37
9.250979061950722098e+03 2.462610812843546256e+37
9.248982611912690118e+03 2.474615125559793053e+37
9.246987023394876815e+03 2.477377375522701708e+37
9.244992295839752842e+03 2.475792257628967046e+37
9.242998428690267247e+03 2.466971709294907342e+37
9.241005421389847470e+03 2.455089146184431947e+37
9.239013273382401167e+03 2.440235263528646832e+37
9.237021984112321661e+03 2.419799828495130406e+37
9.235031553024473396e+03 2.381902347522170027e+37
9.233041979564199210e+03 2.338144821925212525e+37
9.231053263177327608e+03 2.286502781529965643e+37
9.229065403310158217e+03 2.231774403242990987e+37
9.227078399409465419e+03 2.168425886492734694e+37
9.225092250922509265e+03 2.102879774463466957e+37
9.223106957297015470e+03 2.045142727874701798e+37
9.221122517981188139e+03 1.992262098529223649e+37
9.219138932423711594e+03 1.939245999321069012e+37
9.217156200073737637e+03 1.885546397124452246e+37
9.215174320380892823e+03 1.834069176097619715e+37
9.213193292795283924e+03 1.815461708678134420e+37
9.211213116767479733e+03 1.820666710899681967e+37
9.209233791748525618e+03 1.815833771435314258e+37
9.207255317189945345e+03 1.814084216975670214e+37
9.205277692543724697e+03 1.820499213892845461e+37
9.203300917262324219e+03 1.828143272319960827e+37
9.201324990798675572e+03 1.838248083298367955e+37
9.199349912606176076e+03 1.839468983117104905e+37
9.197375682138695993e+03 1.848025086321838900e+37
9.195402298850574880e+03 1.840829334709432827e+37
9.193429762196616139e+03 1.837254994735781903e+37
9.191458071632096107e+03 1.825617957437130169e+37
9.189487226612754966e+03 1.810107896349048095e+37
9.187517226594800377e+03 1.820316489512238182e+37
9.185548071034903842e+03 1.851930654930708860e+37
9.183579759390209801e+03 1.875853217649152779e+37
9.181612291118321082e+03 1.896643254717338849e+37
9.179645665677304351e+03 1.918783142613949816e+37
9.177679882525697394e+03 1.937259626920168691e+37
9.175714941122496384e+03 1.959483710301000639e+37
9.173750840927159516e+03 1.980748613776956371e+37
9.171787581399614282e+03 2.007945141301246774e+37
9.169825162000244745e+03 2.032070571304449819e+37
9.167863582189896988e+03 2.049617158205148142e+37
9.165902841429880937e+03 2.060288511622129066e+37
9.163942939181966722e+03 2.068038076121619878e+37
9.161983874908379221e+03 2.067326179988848594e+37
9.160025648071814430e+03 2.064464573400862952e+37
9.158068258135417636e+03 2.047931121399583081e+37
9.156111704562794330e+03 2.036086844689868038e+37
9.154155986818015663e+03 2.019977826136115758e+37
9.152201104365600258e+03 1.998952003442680285e+37
9.150247056670528764e+03 1.974927553067305956e+37
