# wavelength(A) luminosity(erg/s/A)
1.000000000000000000e+04 6.516321299368421007e+37
9.997667210984103804e+03 6.521002367662526930e+37
9.995335510095288555e+03 6.525659169992785960e+37
9.993004896572398138e+03 6.530084101170970625e+37
9.990675369654989481e+03 6.534823336595238496e+37
9.988346928583318004e+03 6.539992359778778859e+37
9.986019572598363084e+03 6.545440824602612511e+37
9.983693300941797133e+03 6.551000476232243606e+37
9.981368112856000153e+03 6.556411053025798353e+37
9.979044007584074279e+03 6.561546130318306726e+37
9.976720984369805592e+03 6.563932166000028125e+37
9.974399042457691394e+03 6.564860168587417454e+37
9.972078181092938394e+03 6.565773865633585891e+37
9.969758399521451793e+03 6.567292985213652105e+37
9.967439696989833465e+03 6.568164956173474353e+37
9.965122072745391051e+03 6.569609083980049459e+37
9.962805526036134324e+03 6.569182955329395643e+37
9.960490056110758815e+03 6.568663447561018967e+37
9.958175662218682191e+03 6.568858730284078309e+37
9.955862343609996969e+03 6.569754838522736610e+37
9.953550099535501431e+03 6.570773601174763802e+37
9.951238929246690532e+03 6.571278461418468601e+37
9.948928831995755900e+03 6.571011700227949571e+37
9.946619807035574922e+03 6.570517875440702871e+37
9.944311853619728936e+03 6.571217940563147716e+37
9.942004971002486855e+03 6.571698019192552336e+37
9.939699158438805171e+03 6.571702022873847370e+37
9.937394415184338868e+03 6.571342028984650456e+37
9.935090740495432328e+03 6.570558892514154642e+37
9.932788133629108415e+03 6.568536197508224456e+37
9.930486593843097580e+03 6.567339556734175682e+37
9.928186120395803300e+03 6.566024072646745171e+37
9.925886712546320268e+03 6.564078766517669996e+37
9.923588369554430756e+03 6.563031134335236853e+37
9.921291090680602792e+03 6.561984581348866346e+37
9.918994875185979254e+03 6.560924118490784954e+37
9.916699722332408783e+03 6.559889184658038049e+37
9.914405631382398496e+03 6.559001026608886106e+37
9.912112601599152185e+03 6.558050595134279600e+37
9.909820632246555761e+03 6.556510786612598062e+37
9.907529722589168159e+03 6.554724883691803832e+37
9.905239871892230440e+03 6.553364435317519239e+37
9.902951079421667600e+03 6.553023614242478189e+37
9.900663344444077666e+03 6.553271382953750517e+37
9.898376666226738962e+03 6.552763003476336495e+37
9.896091044037604661e+03 6.552115383996746984e+37
9.893806477145308236e+03 6.552111395296428594e+37
9.891522964819148910e+03 6.551416884339010328e+37
9.889240506329115306e+03 6.551880715622977193e+37
9.886959100945854516e+03 6.551921302741756267e+37
9.884678747940692119e+03 6.552648239550791560e+37
9.882399446585630358e+03 6.552810900112833942e+37
9.880121196153340861e+03 6.549455025561929843e+37
9.877843995917157372e+03 6.540480367577268308e+37
9.875567845151095753e+03 6.533281801451861851e+37
9.873292743129835799e+03 6.526318531649404406e+37
9.871018689128717597e+03 6.521374559104011144e+37
9.868745682423765174e+03 6.514753663809958899e+37
9.866473722291653758e+03 6.507341910739746403e+37
9.864202808009733417e+03 6.500193066657771341e+37
9.861932938856016335e+03 6.493596601090110114e+37
9.859664114109178627e+03 6.486667985509760026e+37
9.857396333048563974e+03 6.480257147627928114e+37
9.855129594954172717e+03 6.473544693781061375e+37
9.852863899106672761e+03 6.466884258266041144e+37
9.850599244787390489e+03 6.460604981550819844e+37
9.848335631278314395e+03 6.454588700899362661e+37
9.846073057862089627e+03 6.448403444657005081e+37
9.843811523822023446e+03 6.442232683873904192e+37
9.841551028442083407e+03 6.436310533351930228e+37
9.839291571006888262e+03 6.430173097366073531e+37
9.837033150801717056e+03 6.423571817693779872e+37
9.834775767112510948e+03 6.416894250658407053e+37
9.832519419225853198e+03 6.410637608334886037e+37
9.830264106428990999e+03 6.404730248219022968e+37
9.828009828009828198e+03 6.397780911031461619e+37
9.825756583256910744e+03 6.390941208552169204e+37
9.823504371459444883e+03 6.383525946462329508e+37
9.821253191907286237e+03 6.376802523950804662e+37
9.819003043890945264e+03 6.370911706744475186e+37
9.816753926701569071e+03 6.365260836648143288e+37
9.814505839630974151e+03 6.358810523261787039e+37
9.812258781971610006e+03 6.352675338523154410e+37
9.810012753016577335e+03 6.346720299271924869e+37
9.807767752059631675e+03 6.341146305852392710e+37
9.805523778395163390e+03 6.336350097033945035e+37
9.803280831318212222e+03 6.331944658180751883e+37
9.801038910124472750e+03 6.328693901329747206e+37
9.798798014110270742e+03 6.325375935002102764e+37
9.796558142572575889e+03 6.323452938442566359e+37
9.794319294809010898e+03 6.321635120579727397e+37
9.792081470117831486e+03 6.320021770524123332e+37
9.789844667797937291e+03 6.318254307209506205e+37
9.787608887148870053e+03 6.316538855035371401e+37
9.785374127470808162e+03 6.314157552475877888e+37
9.783140388064568469e+03 6.313121200428774275e+37
9.780907668231611751e+03 6.312416171141780188e+37
9.778675967274031791e+03 6.312596143802557258e+37
9.776445284494557200e+03 6.312795641701348280e+37
9.774215619196560510e+03 6.313298146879599644e+37
9.771986970684039989e+03 6.314140936022869272e+37
9.769759338261632365e+03 6.315016189409253335e+37
9.767532721234616474e+03 6.315708764678353792e+37
9.765307118908889606e+03 6.315862175930426124e+37
9.763082530590991155e+03 6.316468319270066793e+37
9.760858955588091703e+03 6.316307462763593387e+37
9.758636393207989386e+03 6.316250658999940076e+37
9.756414842759113526e+03 6.315651828770666696e+37
9.754194303550526456e+03 6.314950068415125836e+37
9.751974774891916240e+03 6.314030168204207985e+37
9.749756256093596676e+03 6.313695613865223904e+37
9.747538746466518205e+03 6.312915992477216500e+37
9.745322245322246090e+03 6.312369077134630046e+37
9.743106751972978600e+03 6.312253372744787727e+37
9.740892265731541556e+03 6.312444807539974883e+37
9.738678785911377418e+03 6.312892461632334246e+37
9.736466311826559831e+03 6.313252671151735146e+37
9.734254842791784540e+03 6.313547028004856640e+37
9.732044378122365742e+03 6.314305641389926636e+37
9.729834917134237912e+03 6.315946474666806874e+37
9.727626459143968532e+03 6.319714647608143184e+37
9.725419003468732626e+03 6.325559716671409264e+37
9.723212549426329133e+03 6.332001679004673033e+37
9.721007096335180904e+03 6.338631024676163844e+37
9.718802643514320152e+03 6.345890525862016425e+37
9.716599190283399366e+03 6.352745271557016215e+37
9.714396735962696766e+03 6.360005883435333652e+37
9.712195279873094478e+03 6.367481522537878907e+37
9.709994821336094901e+03 6.375138472867052862e+37
9.707795359673818893e+03 6.382738127845795271e+37
9.705596894208994854e+03 6.389895027765747025e+37
9.703399424264966001e+03 6.397009303753186787e+37
9.701202949165697646e+03 6.404449701794785875e+37
9.699007468235751730e+03 6.412336750941700252e+37
9.696812980800310470e+03 6.420565154208125158e+37
9.694619486185167261e+03 6.429757184928763542e+37
9.692426983716724862e+03 6.439512972068728830e+37
9.690235472721986298e+03 6.449279118413628996e+37
9.688044952528580325e+03 6.459620231826969518e+37
9.685855422464728690e+03 6.469589764739778805e+37
9.683666881859262503e+03 6.479426512304249767e+37
9.681479330041629510e+03 6.489768236425099692e+37
9.679292766341874085e+03 6.500090769345233407e+37
9.677107190090642689e+03 6.509861877013087565e+37
9.674922600619194782e+03 6.519076015875071692e+37
9.672738997259391908e+03 6.528430206732098208e+37
9.670556379343692242e+03 6.537793362101162437e+37
9.668374746205161500e+03 6.548924232158926809e+37
9.666194097177471122e+03 6.560884420109933773e+37
9.664014431594883717e+03 6.571979191939386347e+37
9.661835748792271261e+03 6.583151493927640979e+37
9.659658048105096896e+03 6.594674513873775957e+37
9.657481328869431309e+03 6.606955078889870246e+37
9.655305590421936358e+03 6.620833038666464899e+37
9.653130832099877807e+03 6.635358741911073764e+37
9.650957053241112590e+03 6.650457088001029678e+37
9.648784253184099725e+03 6.665787442134564328e+37
9.646612431267887587e+03 6.681609117454939962e+37
9.644441586832122994e+03 6.698312921080500016e+37
9.642271719217049395e+03 6.716398556349952194e+37
9.640102827763495952e+03 6.735813912815376045e+37
9.637934911812893915e+03 6.755780919123160650e+37
9.635767970707265704e+03 6.776302271376905053e+37
9.633602003789217633e+03 6.796376394603647429e+37
9.631437010401950829e+03 6.816423823933912113e+37
9.629272989889263044e+03 6.836508383763352242e+37
9.627109941595532291e+03 6.857465644801562319e+37
9.624947864865731390e+03 6.878444234917480841e+37
9.622786759045420695e+03 6.899903237903642333e+37
9.620626623480744456e+03 6.921486411622509483e+37
9.618467457518434458e+03 6.942640048770185419e+37
9.616309260505819111e+03 6.963789600377414768e+37
9.614152031790797992e+03 6.983307382865677555e+37
9.611995770721860026e+03 7.003725611962797714e+37
9.609840476648087133e+03 7.023456493980728039e+37
9.607686148919137850e+03 7.043401295446587466e+37
9.605532786885245514e+03 7.063495122177373810e+37
9.603380389897243731e+03 7.082632773838468510e+37
9.601228957306537268e+03 7.101279321334073987e+37
9.599078488465107512e+03 7.119767426852844638e+37
9.596928982725527021e+03 7.138475620420033590e+37
9.594780439440944974e+03 7.155817501133781498e+37
9.592632857965083531e+03 7.172966139496457012e+37
9.590486237652250566e+03 7.190251803061887424e+37
9.588340577857325115e+03 7.205170970597450655e+37
9.586195877935771932e+03 7.221271362044199025e+37
9.584052137243626930e+03 7.235430246206733721e+37
9.581909355137500825e+03 7.249356157134530767e+37
9.579767530974582769e+03 7.263750841627073685e+37
9.577626664112633080e+03 7.276417396430054791e+37
9.575486753909990512e+03 7.288593923334523721e+37
9.573347799725563164e+03 7.299817413213075827e+37
9.571209800918835754e+03 7.310378542122604185e+37
9.569072756849862344e+03 7.320374162483502036e+37
9.566936666879264521e+03 7.329176199739513565e+37
9.564801530368245949e+03 7.337016904125354776e+37
9.562667346678568720e+03 7.343682126401869873e+37
9.560534115172567908e+03 7.349808752925147718e+37
9.558401835213153390e+03 7.356018337143326779e+37
9.556270506163793470e+03 7.361411970674317631e+37
9.554140127388534893e+03 7.366057898646236460e+37
9.552010698251982831e+03 7.370394893502128294e+37
9.549882218119309982e+03 7.374810020451282530e+37
9.547754686356256570e+03 7.379354678149873199e+37
9.545628102329132162e+03 7.383858119794942022e+37
9.543502465404802933e+03 7.388275331426643878e+37
9.541377774950702587e+03 7.392997431686275890e+37
9.539254030334828713e+03 7.397697769089897455e+37
9.537131230925739146e+03 7.402059704026760257e+37
9.535009376092551975e+03 7.400688456638978904e+37
9.532888465204956447e+03 7.389517719741687378e+37
9.530768497633192965e+03 7.376473115700152789e+37
9.528649472748062180e+03 7.361481459506210174e+37
9.526531389920930451e+03 7.346966579460093549e+37
9.524414248523715287e+03 7.332308524922666386e+37
9.522298047928899905e+03 7.310475394924846091e+37
9.520182787509520494e+03 7.292104656488919449e+37
9.518068466639169856e+03 7.270839132952815285e+37
9.515955084691999218e+03 7.251739535450675896e+37
9.513842641042716423e+03 7.232212521134967733e+37
9.511731135066582283e+03 7.208173443939936671e+37
9.509620566139410585e+03 7.188530518154762464e+37
9.507510933637573544e+03 7.163135463025610293e+37
9.505402236937994530e+03 7.134183897303665351e+37
9.503294475418144430e+03 7.108957988628700618e+37
9.501187648456058014e+03 7.081840034337873847e+37
9.499081755430310295e+03 7.052588901018315939e+37
9.496976795720029259e+03 7.024254270659540894e+37
9.494872768704899499e+03 6.994944699691808318e+37
9.492769673765149491e+03 6.961321686287920905e+37
9.490667510281555224e+03 6.926946911930214506e+37
9.488566277635449296e+03 6.892666803315288390e+37
9.486465975208702730e+03 6.856684975804341984e+37
9.484366602383737700e+03 6.818472386037442957e+37
9.482268158543523896e+03 6.780158050200893908e+37
9.480170643071576706e+03 6.740369767118581850e+37
9.478074055351951756e+03 6.700668079489529745e+37
9.475978394769259467e+03 6.661366171653156632e+37
9.473883660708646858e+03 6.619802161566331216e+37
9.471789852555803009e+03 6.577808021656230085e+37
9.469696969696969973e+03 6.533576207309107842e+37
9.467605011518920946e+03 6.486966832232472930e+37
9.465513977408973005e+03 6.437911155416615229e+37
9.463423866754992559e+03 6.391106141990846008e+37
9.461334678945377163e+03 6.348389163398479331e+37
9.459246413369068250e+03 6.301915093478314079e+37
9.457159069415547492e+03 6.258505815866612151e+37
9.455072646474834983e+03 6.212928067559691614e+37
9.452987143937483779e+03 6.167503565653039175e+37
9.450902561194594455e+03 6.120319500834878240e+37
9.448818897637795089e+03 6.072768931476511269e+37
9.446736152659255822e+03 6.022929816016829515e+37
9.444654325651681575e+03 5.977084660503202533e+37
9.442573416008310232e+03 5.929335988666674435e+37
9.440493423122914464e+03 5.908169076419223868e+37
9.438414346389807179e+03 5.907929690862065931e+37
9.436336185203825153e+03 5.918233779042676062e+37
9.434258938960343585e+03 5.929442911563484976e+37
9.432182607055272456e+03 5.938938191689799764e+37
9.430107188885047435e+03 5.944646875718587938e+37
9.428032683846637156e+03 5.950467985178717226e+37
9.425959091337543214e+03 5.957448486150999779e+37
9.423886410755796533e+03 5.965992923900820562e+37
9.421814641499951904e+03 5.971759735901661301e+37
9.419743782969102540e+03 5.975066197591046290e+37
9.417673834562863703e+03 5.976328608104985093e+37
9.415604795681376345e+03 5.978759329743914053e+37
9.413536665725312560e+03 5.985234693444156651e+37
9.411469444095871950e+03 5.996283722317514783e+37
9.409403130194774349e+03 5.997702455468825857e+37
9.407337723424270735e+03 5.992181458644047554e+37
9.405273223187134136e+03 5.983750210789649358e+37
9.403209628886659630e+03 5.975723830115229041e+37
9.401146939926671621e+03 5.968396610663878129e+37
9.399085155711511106e+03 5.961413066595342525e+37
9.397024275646044771e+03 5.951585143255197935e+37
9.394964299135663168e+03 5.939793627402084593e+37
9.392905225586275265e+03 5.925857555803064664e+37
9.390847054404306618e+03 5.909129330143399968e+37
9.388789784996713934e+03 5.895635919754972396e+37
9.386733416770965050e+03 5.887792017428545780e+37
9.384677949135044400e+03 5.884218390596050886e+37
9.382623381497467562e+03 5.887826821786699217e+37
9.380569713267253974e+03 5.895890813823506404e+37
9.378516943853945122e+03 5.905088502024387478e+37
9.376465072667604545e+03 5.917168148836244658e+37
9.374414099118805098e+03 5.932063521063662043e+37
9.372364022618638046e+03 5.949281244783017587e+37
9.370314842578711250e+03 5.976335855042620633e+37
9.368266558411141887e+03 6.008012771226611939e+37
9.366219169528567363e+03 6.045461913377121310e+37
9.364172675344132585e+03 6.084425122922540377e+37
9.362127075271502690e+03 6.123791677489358510e+37
9.360082368724844855e+03 6.168434170795391621e+37
9.358038555118846489e+03 6.217186580570529029e+37
9.355995633868704317e+03 6.268798052405324594e+37
9.353953604390122564e+03 6.322324759548212792e+37
9.351912466099316589e+03 6.378521580769945421e+37
9.349872218413016526e+03 6.429281486103639293e+37
9.347832860748449093e+03 6.477812959308123310e+37
9.345794392523364877e+03 6.526660226299543094e+37
9.343756813156009230e+03 6.576536823962752013e+37
9.341720122065142277e+03 6.624593513744421117e+37
9.339684318670028006e+03 6.670157833068736819e+37
9.337649402390439718e+03 6.711201231045148532e+37
9.335615372646647302e+03 6.749327963080026461e+37
9.333582228859437237e+03 6.784371032425850781e+37
9.331549970450092587e+03 6.816384160391654750e+37
9.329518596840402097e+03 6.842065967455631811e+37
9.327488107452663826e+03 6.862265383036408838e+37
9.325458501709668781e+03 6.881292197215228584e+37
9.323429779034713647e+03 6.895745780351838793e+37
9.321401938851602608e+03 6.904764046927094752e+37
9.319374980584636432e+03 6.912801291338654254e+37
9.317348903658610652e+03 6.919257203930732280e+37
9.315323707498835574e+03 6.923004485131444140e+37
9.313299391531107176e+03 6.923431916261430757e+37
9.311275955181725294e+03 6.921816431204247519e+37
9.309253397877489988e+03 6.919839525415788652e+37
9.307231719045699720e+03 6.918089856346136444e+37
9.305210918114144079e+03 6.915054878936435987e+37
9.303190994511116514e+03 6.917788871967423888e+37
9.301171947665405241e+03 6.927399717332100310e+37
9.299153777006291421e+03 6.938306008620599299e+37
9.297136481963554616e+03 6.950840228720713237e+37
9.295120061967467336e+03 6.965834435478470168e+37
9.293104516448793220e+03 6.979906337869568905e+37
9.291089844838799763e+03 6.993789254274467580e+37
9.289076046569234677e+03 7.008077033869305244e+37
9.287063121072345893e+03 7.022684038257468476e+37
9.285051067780872472e+03 7.037054546346837489e+37
9.283039886128044600e+03 7.051291036352769284e+37
9.281029575547579952e+03 7.065759502350314790e+37
9.279020135473694609e+03 7.079332740776886077e+37
9.277011565341084861e+03 7.092644977510004197e+37
9.275003864584943585e+03 7.106658698132066737e+37
9.272997032640949328e+03 7.118478197341831357e+37
9.270991068945271763e+03 7.128702039672997813e+37
9.268985972934560778e+03 7.139118251671361029e+37
9.266981744045964660e+03 7.148812812840654801e+37
9.264978381717110096e+03 7.157915480223296280e+37
9.262975885386111258e+03 7.166009990215742139e+37
9.260974254491571628e+03 7.173068928011422606e+37
9.258973488472578538e+03 7.181154986126617637e+37
9.256973586768697714e+03 7.189874079030854728e+37
9.254974548819991469e+03 7.196236295252270831e+37
9.252976374066993230e+03 7.202823815767073180e+37
9.250979061950722098e+03 7.210310128521836223e+37
9.248982611912690118e+03 7.218272897328638569e+37
9.246987023394876815e+03 7.226646772366614537e+37
9.244992295839752842e+03 7.234747481227937244e+37
9.242998428690267247e+03 7.242026233551176225e+37
9.241005421389847470e+03 7.249532046038394233e+37
9.239013273382401167e+03 7.258422455049745200e+37
9.237021984112321661e+03 7.266777138136407473e+37
9.235031553024473396e+03 7.276130476836696593e+37
9.233041979564199210e+03 7.285830508517029895e+37
9.231053263177327608e+03 7.296212263987984339e+37
9.229065403310158217e+03 7.306639217555508817e+37
9.227078399409465419e+03 7.315077806146581962e+37
9.225092250922509265e+03 7.321729942499632181e+37
9.223106957297015470e+03 7.330368603799917099e+37
9.221122517981188139e+03 7.338686380233398838e+37
9.219138932423711594e+03 7.345544051511087274e+37
9.217156200073737637e+03 7.354657166517328621e+37
9.215174320380892823e+03 7.363474263644812388e+37
9.213193292795283924e+03 7.370643433757578825e+37
9.211213116767479733e+03 7.377224167703154754e+37
9.209233791748525618e+03 7.384631507650516106e+37
9.207255317189945345e+03 7.392985540767941427e+37
9.205277692543724697e+03 7.400715432191459674e+37
9.203300917262324219e+03 7.407362395986852246e+37
9.201324990798675572e+03 7.412441110304710865e+37
9.199349912606176076e+03 7.416315707042847297e+37
9.197375682138695993e+03 7.419252502768295709e+37
9.195402298850574880e+03 7.420656154962712476e+37
9.193429762196616139e+03 7.421197299381838344e+37
9.191458071632096107e+03 7.420677005468905003e+37
9.189487226612754966e+03 7.419916728907443384e+37
9.187517226594800377e+03 7.422450097663365181e+37
9.185548071034903842e+03 7.426704249852103322e+37
9.183579759390209801e+03 7.427897470221011314e+37
9.181612291118321082e+03 7.426721644082381329e+37
9.179645665677304351e+03 7.426581079570466712e+37
9.177679882525697394e+03 7.424540224995393601e+37
9.175714941122496384e+03 7.419912880800083493e+37
9.173750840927159516e+03 7.416022155067144338e+37
9.171787581399614282e+03 7.409949409770295691e+37
9.169825162000244745e+03 7.402609104278454938e+37
9.167863582189896988e+03 7.395796524232579156e+37
9.165902841429880937e+03 7.388344760159464048e+37
9.163942939181966722e+03 7.380276856548586997e+37
9.161983874908379221e+03 7.372898579067007403e+37
9.160025648071814430e+03 7.364004329173256589e+37
9.158068258135417636e+03 7.352688100523781070e+37
9.156111704562794330e+03 7.342763801501736715e+37
9.154155986818015663e+03 7.333203635205590921e+37
9.152201104365600258e+03 7.322498264682066267e+37
9.150247056670528764e+03 7.313848765148171479e+37
