# wavelength(A) luminosity(erg/s/A)
1.000000000000000000e+04 5.849082542098285023e+37
9.997667210984103804e+03 5.856923238030239259e+37
9.995335510095288555e+03 5.864949448924395342e+37
9.993004896572398138e+03 5.872992416140575034e+37
9.990675369654989481e+03 5.881104716646876165e+37
9.988346928583318004e+03 5.889263088778330602e+37
9.986019572598363084e+03 5.897410863984090123e+37
9.983693300941797133e+03 5.905386126838928623e+37
9.981368112856000153e+03 5.913596669079577564e+37
9.979044007584074279e+03 5.920320163017257197e+37
9.976720984369805592e+03 5.921364255544660723e+37
9.974399042457691394e+03 5.917921039190125710e+37
9.972078181092938394e+03 5.910112693107736148e+37
9.969758399521451793e+03 5.899311140040996749e+37
9.967439696989833465e+03 5.885237932620219079e+37
9.965122072745391051e+03 5.877056092266811250e+37
9.962805526036134324e+03 5.868583013610942987e+37
9.960490056110758815e+03 5.858687812363040115e+37
9.958175662218682191e+03 5.849940532834011401e+37
9.955862343609996969e+03 5.839541234143492513e+37
9.953550099535501431e+03 5.828951999774442221e+37
9.951238929246690532e+03 5.819658752970705880e+37
9.948928831995755900e+03 5.810127344203300567e+37
9.946619807035574922e+03 5.800587593249686199e+37
9.944311853619728936e+03 5.789327245350833937e+37
9.942004971002486855e+03 5.779360171233140414e+37
9.939699158438805171e+03 5.767959875327722108e+37
9.937394415184338868e+03 5.755574987470991172e+37
9.935090740495432328e+03 5.745750356152935024e+37
9.932788133629108415e+03 5.734433651119669585e+37
9.930486593843097580e+03 5.722287917892701572e+37
9.928186120395803300e+03 5.710920815924786572e+37
9.925886712546320268e+03 5.697598247403938626e+37
9.923588369554430756e+03 5.686029787084855741e+37
9.921291090680602792e+03 5.673733874242946954e+37
9.918994875185979254e+03 5.662115841734183241e+37
9.916699722332408783e+03 5.650448365516910483e+37
9.914405631382398496e+03 5.637964568168933456e+37
9.912112601599152185e+03 5.625134635381736048e+37
9.909820632246555761e+03 5.601897180660549261e+37
9.907529722589168159e+03 5.584254086466619453e+37
9.905239871892230440e+03 5.560567177265123645e+37
9.902951079421667600e+03 5.535595334649355298e+37
9.900663344444077666e+03 5.513302649413188962e+37
9.898376666226738962e+03 5.490878008166044881e+37
9.896091044037604661e+03 5.468777813357388503e+37
9.893806477145308236e+03 5.448283388321348599e+37
9.891522964819148910e+03 5.426950672890707053e+37
9.889240506329115306e+03 5.405566485851153332e+37
9.886959100945854516e+03 5.385955839724711917e+37
9.884678747940692119e+03 5.366429047083766948e+37
9.882399446585630358e+03 5.348719324921676349e+37
9.880121196153340861e+03 5.329907280523937838e+37
9.877843995917157372e+03 5.311802120868951417e+37
9.875567845151095753e+03 5.295723055033578324e+37
9.873292743129835799e+03 5.280201580937013242e+37
9.871018689128717597e+03 5.265918842229570856e+37
9.868745682423765174e+03 5.251624904077131732e+37
9.866473722291653758e+03 5.237066849393958373e+37
9.864202808009733417e+03 5.223374887123173492e+37
9.861932938856016335e+03 5.209621505801960599e+37
9.859664114109178627e+03 5.197687561137575314e+37
9.857396333048563974e+03 5.185987279915608851e+37
9.855129594954172717e+03 5.175403043418698625e+37
9.852863899106672761e+03 5.167056579815052412e+37
9.850599244787390489e+03 5.160085951442081500e+37
9.848335631278314395e+03 5.152884678246901391e+37
9.846073057862089627e+03 5.146173025335703329e+37
9.843811523822023446e+03 5.139779340049933112e+37
9.841551028442083407e+03 5.134589298172356689e+37
9.839291571006888262e+03 5.129816819038412497e+37
9.837033150801717056e+03 5.126856933329695549e+37
9.834775767112510948e+03 5.123504537052460911e+37
9.832519419225853198e+03 5.120015247749667507e+37
9.830264106428990999e+03 5.117465200872111607e+37
9.828009828009828198e+03 5.114695154529171919e+37
9.825756583256910744e+03 5.111013789100840089e+37
9.823504371459444883e+03 5.106854843365254223e+37
9.821253191907286237e+03 5.102092926391261188e+37
9.819003043890945264e+03 5.098152024420484569e+37
9.816753926701569071e+03 5.092857859840186499e+37
9.814505839630974151e+03 5.088080834425482293e+37
9.812258781971610006e+03 5.083218492811330766e+37
9.810012753016577335e+03 5.078477055387908498e+37
9.807767752059631675e+03 5.073303516856404401e+37
9.805523778395163390e+03 5.068600928288476912e+37
9.803280831318212222e+03 5.063388964371414079e+37
9.801038910124472750e+03 5.057876014616795791e+37
9.798798014110270742e+03 5.053381608684861869e+37
9.796558142572575889e+03 5.049063201780213062e+37
9.794319294809010898e+03 5.043148801281069354e+37
9.792081470117831486e+03 5.035469558595786692e+37
9.789844667797937291e+03 5.028010448745508878e+37
9.787608887148870053e+03 5.018957678357822557e+37
9.785374127470808162e+03 5.009286305873674113e+37
9.783140388064568469e+03 4.999286214134263446e+37
9.780907668231611751e+03 4.988355159134786751e+37
9.778675967274031791e+03 4.977528809988296165e+37
9.776445284494557200e+03 4.965254856611280796e+37
9.774215619196560510e+03 4.952104324147071686e+37
9.771986970684039989e+03 4.938751223234911415e+37
9.769759338261632365e+03 4.923808768193116531e+37
9.767532721234616474e+03 4.909591010537436086e+37
9.765307118908889606e+03 4.894943915269731418e+37
9.763082530590991155e+03 4.878777518866418809e+37
9.760858955588091703e+03 4.861791942404147191e+37
9.758636393207989386e+03 4.845028347088176782e+37
9.756414842759113526e+03 4.834569294476780003e+37
9.754194303550526456e+03 4.823860080150269227e+37
9.751974774891916240e+03 4.813471511552646797e+37
9.749756256093596676e+03 4.803570165719819253e+37
9.747538746466518205e+03 4.792897122405719877e+37
9.745322245322246090e+03 4.781741783645232212e+37
9.743106751972978600e+03 4.770739845091802361e+37
9.740892265731541556e+03 4.759231411649328722e+37
9.738678785911377418e+03 4.747093277572412269e+37
9.736466311826559831e+03 4.735587725071167551e+37
9.734254842791784540e+03 4.726318761786428995e+37
9.732044378122365742e+03 4.717212752415059007e+37
9.729834917134237912e+03 4.708314183833123207e+37
9.727626459143968532e+03 4.698948828292027842e+37
9.725419003468732626e+03 4.696257751600569159e+37
9.723212549426329133e+03 4.696581062783711816e+37
9.721007096335180904e+03 4.699019834570723095e+37
9.718802643514320152e+03 4.701718113946247110e+37
9.716599190283399366e+03 4.706287798261285599e+37
9.714396735962696766e+03 4.711018556695338539e+37
9.712195279873094478e+03 4.717127530292051402e+37
9.709994821336094901e+03 4.724860271475169467e+37
9.707795359673818893e+03 4.734438741046110716e+37
9.705596894208994854e+03 4.743560219017801946e+37
9.703399424264966001e+03 4.755778281358468067e+37
9.701202949165697646e+03 4.769679017287707238e+37
9.699007468235751730e+03 4.786102874132390999e+37
9.696812980800310470e+03 4.802176208268470296e+37
9.694619486185167261e+03 4.816821040480050153e+37
9.692426983716724862e+03 4.832541405353057987e+37
9.690235472721986298e+03 4.850772895951682512e+37
9.688044952528580325e+03 4.869564252922210072e+37
9.685855422464728690e+03 4.891339524910329492e+37
9.683666881859262503e+03 4.913618332554617373e+37
9.681479330041629510e+03 4.936063347007304330e+37
9.679292766341874085e+03 4.961035511516642560e+37
9.677107190090642689e+03 4.985896587772293121e+37
9.674922600619194782e+03 5.011704688745873067e+37
9.672738997259391908e+03 5.038395654398717358e+37
9.670556379343692242e+03 5.066491296856934120e+37
9.668374746205161500e+03 5.096824790168055326e+37
9.666194097177471122e+03 5.128249557569064428e+37
9.664014431594883717e+03 5.156678325107362504e+37
9.661835748792271261e+03 5.184986166966822673e+37
9.659658048105096896e+03 5.212937175307001498e+37
9.657481328869431309e+03 5.241891377685030291e+37
9.655305590421936358e+03 5.272021896580225284e+37
9.653130832099877807e+03 5.303007703795115945e+37
9.650957053241112590e+03 5.332383410927886245e+37
9.648784253184099725e+03 5.362959354037794728e+37
9.646612431267887587e+03 5.393357737530907282e+37
9.644441586832122994e+03 5.422654795134548464e+37
9.642271719217049395e+03 5.452972088285107225e+37
9.640102827763495952e+03 5.482283680022680158e+37
9.637934911812893915e+03 5.511626061273544798e+37
9.635767970707265704e+03 5.540653301759977451e+37
9.633602003789217633e+03 5.570129244359464856e+37
9.631437010401950829e+03 5.597985190923843565e+37
9.629272989889263044e+03 5.626191776133558030e+37
9.627109941595532291e+03 5.653185312353530751e+37
9.624947864865731390e+03 5.680266102070541542e+37
9.622786759045420695e+03 5.707436725352981701e+37
9.620626623480744456e+03 5.734570235683585570e+37
9.618467457518434458e+03 5.762059280174552137e+37
9.616309260505819111e+03 5.788126762638175161e+37
9.614152031790797992e+03 5.812807586997310342e+37
9.611995770721860026e+03 5.837004591084551229e+37
9.609840476648087133e+03 5.862265950058756075e+37
9.607686148919137850e+03 5.887601764543374338e+37
9.605532786885245514e+03 5.912434253199051966e+37
9.603380389897243731e+03 5.937382055632596462e+37
9.601228957306537268e+03 5.960905201665521266e+37
9.599078488465107512e+03 5.984845341779567637e+37
9.596928982725527021e+03 6.008206247588396481e+37
9.594780439440944974e+03 6.031120659684860135e+37
9.592632857965083531e+03 6.053570998049360697e+37
9.590486237652250566e+03 6.075992963350022002e+37
9.588340577857325115e+03 6.097004932726686933e+37
9.586195877935771932e+03 6.117658070144842994e+37
9.584052137243626930e+03 6.137253914063676497e+37
9.581909355137500825e+03 6.155617341028851884e+37
9.579767530974582769e+03 6.173840170817824813e+37
9.577626664112633080e+03 6.191717614440127925e+37
9.575486753909990512e+03 6.207788855751954108e+37
9.573347799725563164e+03 6.223680534467018235e+37
9.571209800918835754e+03 6.238725917336569771e+37
9.569072756849862344e+03 6.252969034619180468e+37
9.566936666879264521e+03 6.265693458969875972e+37
9.564801530368245949e+03 6.276570407067616010e+37
9.562667346678568720e+03 6.287045612061496079e+37
9.560534115172567908e+03 6.295099352343516928e+37
9.558401835213153390e+03 6.302397496638324955e+37
9.556270506163793470e+03 6.307860756170385980e+37
9.554140127388534893e+03 6.312121633429618799e+37
9.552010698251982831e+03 6.316452500809586557e+37
9.549882218119309982e+03 6.321665887027072421e+37
9.547754686356256570e+03 6.327752508816183264e+37
9.545628102329132162e+03 6.333533869833454057e+37
9.543502465404802933e+03 6.339184828202708328e+37
9.541377774950702587e+03 6.345085691974824395e+37
9.539254030334828713e+03 6.351117638102615896e+37
9.537131230925739146e+03 6.357111024875131936e+37
9.535009376092551975e+03 6.341016076637151001e+37
9.532888465204956447e+03 6.322952199844116703e+37
9.530768497633192965e+03 6.301218312782353254e+37
9.528649472748062180e+03 6.269237857165044947e+37
9.526531389920930451e+03 6.235104731373676251e+37
9.524414248523715287e+03 6.192680222810037305e+37
9.522298047928899905e+03 6.155763309272009349e+37
9.520182787509520494e+03 6.108502777258838401e+37
9.518068466639169856e+03 6.060469039365840711e+37
9.515955084691999218e+03 6.007048667674810396e+37
9.513842641042716423e+03 5.953632888760624252e+37
9.511731135066582283e+03 5.898001225569022746e+37
9.509620566139410585e+03 5.840886684388335765e+37
9.507510933637573544e+03 5.779639599783194372e+37
9.505402236937994530e+03 5.712104206774889907e+37
9.503294475418144430e+03 5.648243538988263880e+37
9.501187648456058014e+03 5.578562020774735444e+37
9.499081755430310295e+03 5.501010955940511070e+37
9.496976795720029259e+03 5.422043644872555427e+37
9.494872768704899499e+03 5.338866840750788826e+37
9.492769673765149491e+03 5.257725245693801197e+37
9.490667510281555224e+03 5.172907783108190001e+37
9.488566277635449296e+03 5.081929157134918971e+37
9.486465975208702730e+03 4.983073488037604188e+37
9.484366602383737700e+03 4.881587726110749487e+37
9.482268158543523896e+03 4.776388711512872393e+37
9.480170643071576706e+03 4.669988554977676833e+37
9.478074055351951756e+03 4.559474567450761595e+37
9.475978394769259467e+03 4.447145441718858436e+37
9.473883660708646858e+03 4.332845574301676723e+37
9.471789852555803009e+03 4.212813993903828599e+37
9.469696969696969973e+03 4.133016777470171337e+37
9.467605011518920946e+03 4.083427355450136273e+37
9.465513977408973005e+03 4.047589556592947267e+37
9.463423866754992559e+03 4.014585712401663040e+37
9.461334678945377163e+03 3.986088313840321952e+37
9.459246413369068250e+03 3.957645561677695392e+37
9.457159069415547492e+03 3.931231965816026254e+37
9.455072646474834983e+03 3.908822909771905967e+37
9.452987143937483779e+03 3.889562510744690708e+37
9.450902561194594455e+03 3.868587327685623698e+37
9.448818897637795089e+03 3.851571137524096986e+37
9.446736152659255822e+03 3.843353676648979578e+37
9.444654325651681575e+03 3.839395508653966940e+37
9.442573416008310232e+03 3.840927647451551134e+37
9.440493423122914464e+03 3.844761327469508563e+37
9.438414346389807179e+03 3.850432106976657438e+37
9.436336185203825153e+03 3.864833113327228379e+37
9.434258938960343585e+03 3.887568886297074716e+37
9.432182607055272456e+03 3.916744545045906619e+37
9.430107188885047435e+03 3.950396817175984950e+37
9.428032683846637156e+03 3.987150633889344380e+37
9.425959091337543214e+03 4.027888682528265978e+37
9.423886410755796533e+03 4.070690940067059651e+37
9.421814641499951904e+03 4.122337166777451764e+37
9.419743782969102540e+03 4.174149490461310201e+37
9.417673834562863703e+03 4.229532564078376086e+37
9.415604795681376345e+03 4.283788548208243333e+37
9.413536665725312560e+03 4.343797995331743214e+37
9.411469444095871950e+03 4.410684901674821551e+37
9.409403130194774349e+03 4.461013021596208200e+37
9.407337723424270735e+03 4.507765291216180470e+37
9.405273223187134136e+03 4.547762479094489414e+37
9.403209628886659630e+03 4.589772332763598320e+37
9.401146939926671621e+03 4.632703318949440080e+37
9.399085155711511106e+03 4.680397479268449441e+37
9.397024275646044771e+03 4.720180739125603384e+37
9.394964299135663168e+03 4.753568786197017961e+37
9.392905225586275265e+03 4.785466403824200561e+37
9.390847054404306618e+03 4.809724739265589592e+37
9.388789784996713934e+03 4.831903741737802839e+37
9.386733416770965050e+03 4.853663164048946743e+37
9.384677949135044400e+03 4.875564706231698260e+37
9.382623381497467562e+03 4.898653915623016549e+37
9.380569713267253974e+03 4.923641723769089988e+37
9.378516943853945122e+03 4.943901105411470461e+37
9.376465072667604545e+03 4.961236670425040069e+37
9.374414099118805098e+03 4.973869376582431487e+37
9.372364022618638046e+03 4.984106338275898102e+37
9.370314842578711250e+03 4.991295890179211840e+37
9.368266558411141887e+03 5.000023978976288164e+37
9.366219169528567363e+03 5.005948128804765482e+37
9.364172675344132585e+03 5.015670728297030497e+37
9.362127075271502690e+03 5.024597957624402815e+37
9.360082368724844855e+03 5.029484366307464095e+37
9.358038555118846489e+03 5.032905603234166520e+37
9.355995633868704317e+03 5.034270779790958041e+37
9.353953604390122564e+03 5.034622886499461860e+37
9.351912466099316589e+03 5.032962660323393405e+37
9.349872218413016526e+03 5.032348752623267210e+37
9.347832860748449093e+03 5.027830134059306541e+37
9.345794392523364877e+03 5.022803883333142730e+37
9.343756813156009230e+03 5.018281513370677079e+37
9.341720122065142277e+03 5.011030896269829683e+37
9.339684318670028006e+03 5.003447871341925392e+37
9.337649402390439718e+03 4.995003364587206489e+37
9.335615372646647302e+03 4.987525891471138814e+37
9.333582228859437237e+03 4.979961525044779746e+37
9.331549970450092587e+03 4.985516141855861900e+37
9.329518596840402097e+03 4.994277169179482250e+37
9.327488107452663826e+03 5.006107176880397366e+37
9.325458501709668781e+03 5.022432684041857542e+37
9.323429779034713647e+03 5.039659223566231540e+37
9.321401938851602608e+03 5.055283783899879422e+37
9.319374980584636432e+03 5.070340684625057737e+37
9.317348903658610652e+03 5.086105312709447764e+37
9.315323707498835574e+03 5.100508802162139842e+37
9.313299391531107176e+03 5.113341877320798274e+37
9.311275955181725294e+03 5.127872886389877094e+37
9.309253397877489988e+03 5.145109051410197181e+37
9.307231719045699720e+03 5.163062484025246611e+37
9.305210918114144079e+03 5.178141619853109244e+37
9.303190994511116514e+03 5.193994382822948052e+37
9.301171947665405241e+03 5.210123886841837959e+37
9.299153777006291421e+03 5.230117963207050585e+37
9.297136481963554616e+03 5.251180757239450986e+37
9.295120061967467336e+03 5.273381679889000647e+37
9.293104516448793220e+03 5.297110515596037848e+37
9.291089844838799763e+03 5.321513711098972469e+37
9.289076046569234677e+03 5.346696301560246768e+37
9.287063121072345893e+03 5.370820213128627922e+37
9.285051067780872472e+03 5.397384317886717738e+37
9.283039886128044600e+03 5.424416400442410028e+37
9.281029575547579952e+03 5.450905156163750701e+37
9.279020135473694609e+03 5.474513304217421675e+37
9.277011565341084861e+03 5.501914000592071661e+37
9.275003864584943585e+03 5.528172264467372033e+37
9.272997032640949328e+03 5.549216191828689800e+37
9.270991068945271763e+03 5.569084797906675816e+37
9.268985972934560778e+03 5.588156270027582251e+37
9.266981744045964660e+03 5.605878721663383821e+37
9.264978381717110096e+03 5.623789897501813613e+37
9.262975885386111258e+03 5.642948310225507593e+37
9.260974254491571628e+03 5.661756684574576950e+37
9.258973488472578538e+03 5.678326565835939353e+37
9.256973586768697714e+03 5.695404815280811768e+37
9.254974548819991469e+03 5.710085752985093338e+37
9.252976374066993230e+03 5.724563869251241141e+37
9.250979061950722098e+03 5.738329659356250781e+37
9.248982611912690118e+03 5.751249697328386982e+37
9.246987023394876815e+03 5.762450300628604633e+37
9.244992295839752842e+03 5.776606340895384142e+37
9.242998428690267247e+03 5.789499547182775055e+37
9.241005421389847470e+03 5.801332052432175454e+37
9.239013273382401167e+03 5.812134789011289962e+37
9.237021984112321661e+03 5.821382121784936605e+37
9.235031553024473396e+03 5.828716258146745594e+37
9.233041979564199210e+03 5.833270839355225751e+37
9.231053263177327608e+03 5.837665903570355902e+37
9.229065403310158217e+03 5.840488282781624844e+37
9.227078399409465419e+03 5.839076848164564226e+37
9.225092250922509265e+03 5.834617043551998347e+37
9.223106957297015470e+03 5.828754103434210163e+37
9.221122517981188139e+03 5.823415850863422169e+37
9.219138932423711594e+03 5.816094349078123917e+37
9.217156200073737637e+03 5.811138333006077922e+37
9.215174320380892823e+03 5.811959350967005970e+37
9.213193292795283924e+03 5.816076571930977976e+37
9.211213116767479733e+03 5.816109126438730461e+37
9.209233791748525618e+03 5.814530708662347781e+37
9.207255317189945345e+03 5.814684092200831786e+37
9.205277692543724697e+03 5.810055529960522431e+37
9.203300917262324219e+03 5.803961744457641458e+37
9.201324990798675572e+03 5.793910509763541692e+37
9.199349912606176076e+03 5.779968923693963398e+37
9.197375682138695993e+03 5.766031951477571178e+37
9.195402298850574880e+03 5.750814083377510496e+37
9.193429762196616139e+03 5.732567983058365282e+37
9.191458071632096107e+03 5.715547800084011439e+37
9.189487226612754966e+03 5.697550601801811317e+37
9.187517226594800377e+03 5.677588112988607299e+37
9.185548071034903842e+03 5.655913733383849613e+37
9.183579759390209801e+03 5.635675445823061500e+37
9.181612291118321082e+03 5.613260072104812306e+37
9.179645665677304351e+03 5.591329874079587269e+37
9.177679882525697394e+03 5.565433983976312377e+37
9.175714941122496384e+03 5.541927558562866083e+37
9.173750840927159516e+03 5.520091827546751114e+37
9.171787581399614282e+03 5.500131881646990761e+37
9.169825162000244745e+03 5.480010406013829230e+37
9.167863582189896988e+03 5.459145996187476899e+37
9.165902841429880937e+03 5.437341010779210619e+37
9.163942939181966722e+03 5.430697350835705594e+37
9.161983874908379221e+03 5.425347330924195011e+37
9.160025648071814430e+03 5.420315726447698466e+37
9.158068258135417636e+03 5.410708109826294033e+37
9.156111704562794330e+03 5.399186699684656530e+37
9.154155986818015663e+03 5.386305920311092430e+37
9.152201104365600258e+03 5.372120017703770451e+37
9.150247056670528764e+03 5.357809194883070948e+37
