# wavelength(A) luminosity(erg/s/A)
1.000000000000000000e+04 4.585688771599827026e+37
9.997667210984103804e+03 4.593093359955536654e+37
9.995335510095288555e+03 4.600602890687312456e+37
9.993004896572398138e+03 4.607896525433103786e+37
9.990675369654989481e+03 4.615257504398946186e+37
9.988346928583318004e+03 4.622332928023058788e+37
9.986019572598363084e+03 4.629278827394879156e+37
9.983693300941797133e+03 4.636227426192265215e+37
9.981368112856000153e+03 4.632360455439573787e+37
9.979044007584074279e+03 4.616123146850101356e+37
9.976720984369805592e+03 4.591631027603104880e+37
9.974399042457691394e+03 4.566840247334310806e+37
9.972078181092938394e+03 4.538886920008276275e+37
9.969758399521451793e+03 4.511465579058058498e+37
9.967439696989833465e+03 4.483454646000502225e+37
9.965122072745391051e+03 4.453806010755695931e+37
9.962805526036134324e+03 4.420981019140591030e+37
9.960490056110758815e+03 4.392346610015553938e+37
9.958175662218682191e+03 4.362155564833291852e+37
9.955862343609996969e+03 4.331082473785172678e+37
9.953550099535501431e+03 4.301297452843769251e+37
9.951238929246690532e+03 4.271472267150996612e+37
9.948928831995755900e+03 4.243411283841545625e+37
9.946619807035574922e+03 4.215221721910206743e+37
9.944311853619728936e+03 4.185906834731598312e+37
9.942004971002486855e+03 4.159590869298596754e+37
9.939699158438805171e+03 4.132909049358115969e+37
9.937394415184338868e+03 4.104268282197816780e+37
9.935090740495432328e+03 4.077107675291554079e+37
9.932788133629108415e+03 4.048313772232699745e+37
9.930486593843097580e+03 4.013739468358260086e+37
9.928186120395803300e+03 3.982408160274452529e+37
9.925886712546320268e+03 3.956775965038092586e+37
9.923588369554430756e+03 3.931762359993554181e+37
9.921291090680602792e+03 3.910005061445430631e+37
9.918994875185979254e+03 3.886838852828875807e+37
9.916699722332408783e+03 3.866900012303318369e+37
9.914405631382398496e+03 3.846953099806895850e+37
9.912112601599152185e+03 3.831762639793338595e+37
9.909820632246555761e+03 3.816707279916266639e+37
9.907529722589168159e+03 3.801596831430295989e+37
9.905239871892230440e+03 3.789484502164406606e+37
9.902951079421667600e+03 3.777631868327603241e+37
9.900663344444077666e+03 3.770865406311573909e+37
9.898376666226738962e+03 3.763263168755349135e+37
9.896091044037604661e+03 3.757047188594264712e+37
9.893806477145308236e+03 3.750489247649913803e+37
9.891522964819148910e+03 3.743455752340229964e+37
9.889240506329115306e+03 3.739489136892393212e+37
9.886959100945854516e+03 3.736305081190924621e+37
9.884678747940692119e+03 3.735130981298641887e+37
9.882399446585630358e+03 3.734222691213937754e+37
9.880121196153340861e+03 3.734666209485953699e+37
9.877843995917157372e+03 3.736023842201743624e+37
9.875567845151095753e+03 3.738364696047791150e+37
9.873292743129835799e+03 3.741514428071832739e+37
9.871018689128717597e+03 3.746573756093178066e+37
9.868745682423765174e+03 3.750265830499022758e+37
9.866473722291653758e+03 3.753701830751901498e+37
9.864202808009733417e+03 3.758129899759134980e+37
9.861932938856016335e+03 3.762249079677735350e+37
9.859664114109178627e+03 3.767781617085593079e+37
9.857396333048563974e+03 3.772163440935402903e+37
9.855129594954172717e+03 3.775733762744886503e+37
9.852863899106672761e+03 3.779430913613725391e+37
9.850599244787390489e+03 3.782470035958225586e+37
9.848335631278314395e+03 3.786423674155725109e+37
9.846073057862089627e+03 3.789467308830861308e+37
9.843811523822023446e+03 3.792906903003218939e+37
9.841551028442083407e+03 3.796087963477436190e+37
9.839291571006888262e+03 3.799259974703354367e+37
9.837033150801717056e+03 3.802408520467338355e+37
9.834775767112510948e+03 3.805879879864559101e+37
9.832519419225853198e+03 3.808593221610481525e+37
9.830264106428990999e+03 3.810215107903597292e+37
9.828009828009828198e+03 3.809651037377670327e+37
9.825756583256910744e+03 3.806409236491411757e+37
9.823504371459444883e+03 3.801451356499060043e+37
9.821253191907286237e+03 3.795028363646126507e+37
9.819003043890945264e+03 3.788251001679943963e+37
9.816753926701569071e+03 3.779713634895145042e+37
9.814505839630974151e+03 3.770267585987289907e+37
9.812258781971610006e+03 3.759660873482034891e+37
9.810012753016577335e+03 3.748870521388798534e+37
9.807767752059631675e+03 3.736963227506734262e+37
9.805523778395163390e+03 3.724619698521522974e+37
9.803280831318212222e+03 3.712228262700754064e+37
9.801038910124472750e+03 3.699299786024084386e+37
9.798798014110270742e+03 3.684678255121695839e+37
9.796558142572575889e+03 3.668213241273584756e+37
9.794319294809010898e+03 3.648415545676045928e+37
9.792081470117831486e+03 3.627998149522459178e+37
9.789844667797937291e+03 3.604948877711505923e+37
9.787608887148870053e+03 3.581087276117503717e+37
9.785374127470808162e+03 3.554493921963330419e+37
9.783140388064568469e+03 3.526469656577036514e+37
9.780907668231611751e+03 3.506015511719381403e+37
9.778675967274031791e+03 3.490985941030326760e+37
9.776445284494557200e+03 3.476656473679525337e+37
9.774215619196560510e+03 3.465143735652077738e+37
9.771986970684039989e+03 3.452896336894594598e+37
9.769759338261632365e+03 3.440343240051479541e+37
9.767532721234616474e+03 3.429340179563222621e+37
9.765307118908889606e+03 3.417856783869282786e+37
9.763082530590991155e+03 3.406350195469613994e+37
9.760858955588091703e+03 3.394797314988096551e+37
9.758636393207989386e+03 3.384279868651644411e+37
9.756414842759113526e+03 3.375081347008873870e+37
9.754194303550526456e+03 3.365711662846970205e+37
9.751974774891916240e+03 3.356178783055943392e+37
9.749756256093596676e+03 3.350583925176245797e+37
9.747538746466518205e+03 3.353446554544003829e+37
9.745322245322246090e+03 3.357326765448282693e+37
9.743106751972978600e+03 3.362799307142509766e+37
9.740892265731541556e+03 3.368599405919842252e+37
9.738678785911377418e+03 3.373638884114245072e+37
9.736466311826559831e+03 3.382206221615443503e+37
9.734254842791784540e+03 3.390737722391487385e+37
9.732044378122365742e+03 3.400738622513970068e+37
9.729834917134237912e+03 3.409697902016828003e+37
9.727626459143968532e+03 3.419853331453957408e+37
9.725419003468732626e+03 3.430780263697957213e+37
9.723212549426329133e+03 3.441993911436954508e+37
9.721007096335180904e+03 3.453223462771347550e+37
9.718802643514320152e+03 3.465363551850230536e+37
9.716599190283399366e+03 3.478848802054697844e+37
9.714396735962696766e+03 3.490629364982158798e+37
9.712195279873094478e+03 3.502836505772016787e+37
9.709994821336094901e+03 3.514281400200115531e+37
9.707795359673818893e+03 3.525623346929627269e+37
9.705596894208994854e+03 3.536609838861907834e+37
9.703399424264966001e+03 3.547401015964250938e+37
9.701202949165697646e+03 3.559521028156395191e+37
9.699007468235751730e+03 3.570771188482705946e+37
9.696812980800310470e+03 3.582355151683359809e+37
9.694619486185167261e+03 3.592900727458892726e+37
9.692426983716724862e+03 3.604065557736569728e+37
9.690235472721986298e+03 3.614612992317665644e+37
9.688044952528580325e+03 3.625501346404877659e+37
9.685855422464728690e+03 3.637931990044821080e+37
9.683666881859262503e+03 3.648826473482461351e+37
9.681479330041629510e+03 3.660134839690649801e+37
9.679292766341874085e+03 3.671319087749712186e+37
9.677107190090642689e+03 3.682497518235520575e+37
9.674922600619194782e+03 3.693711668254603879e+37
9.672738997259391908e+03 3.704203323274182201e+37
9.670556379343692242e+03 3.714850916915441487e+37
9.668374746205161500e+03 3.725667135037249955e+37
9.666194097177471122e+03 3.736683414000282259e+37
9.664014431594883717e+03 3.747674018538013760e+37
9.661835748792271261e+03 3.758985866384632875e+37
9.659658048105096896e+03 3.770619398581080942e+37
9.657481328869431309e+03 3.782176631606141290e+37
9.655305590421936358e+03 3.794296587639509483e+37
9.653130832099877807e+03 3.806872916240079769e+37
9.650957053241112590e+03 3.819953086421539439e+37
9.648784253184099725e+03 3.833660320824695005e+37
9.646612431267887587e+03 3.847303522552472578e+37
9.644441586832122994e+03 3.861776751243906529e+37
9.642271719217049395e+03 3.877058924240218251e+37
9.640102827763495952e+03 3.892900258600944060e+37
9.637934911812893915e+03 3.908818278146925714e+37
9.635767970707265704e+03 3.925575273932966951e+37
9.633602003789217633e+03 3.943035760761181665e+37
9.631437010401950829e+03 3.960925637426771862e+37
9.629272989889263044e+03 3.979119539741833622e+37
9.627109941595532291e+03 3.997998305250995243e+37
9.624947864865731390e+03 4.017867969811970505e+37
9.622786759045420695e+03 4.038407655525639387e+37
9.620626623480744456e+03 4.058689476011788111e+37
9.618467457518434458e+03 4.079123665797311977e+37
9.616309260505819111e+03 4.099967320018321460e+37
9.614152031790797992e+03 4.122077377484005147e+37
9.611995770721860026e+03 4.143990367238514330e+37
9.609840476648087133e+03 4.166606958093423535e+37
9.607686148919137850e+03 4.189609134920941129e+37
9.605532786885245514e+03 4.212663742833553063e+37
9.603380389897243731e+03 4.236134743913175196e+37
9.601228957306537268e+03 4.260293121730050974e+37
9.599078488465107512e+03 4.284962373252273286e+37
9.596928982725527021e+03 4.309986888205053106e+37
9.594780439440944974e+03 4.333629248616618702e+37
9.592632857965083531e+03 4.356637639285959878e+37
9.590486237652250566e+03 4.379573043024808208e+37
9.588340577857325115e+03 4.402176383460656405e+37
9.586195877935771932e+03 4.425131824936265527e+37
9.584052137243626930e+03 4.447017953359945781e+37
9.581909355137500825e+03 4.468965938781832587e+37
9.579767530974582769e+03 4.489249026310901281e+37
9.577626664112633080e+03 4.509666313333864600e+37
9.575486753909990512e+03 4.529237748212372789e+37
9.573347799725563164e+03 4.549191206293852857e+37
9.571209800918835754e+03 4.568431635299453690e+37
9.569072756849862344e+03 4.588510631162744831e+37
9.566936666879264521e+03 4.607334128342845404e+37
9.564801530368245949e+03 4.624820876299136547e+37
9.562667346678568720e+03 4.639191520340870074e+37
9.560534115172567908e+03 4.652094496465196403e+37
9.558401835213153390e+03 4.663316733451072445e+37
9.556270506163793470e+03 4.672137201569295185e+37
9.554140127388534893e+03 4.678115074145988504e+37
9.552010698251982831e+03 4.682975033451887039e+37
9.549882218119309982e+03 4.688203834523461784e+37
9.547754686356256570e+03 4.693838937841277580e+37
9.545628102329132162e+03 4.699149315538431276e+37
9.543502465404802933e+03 4.704231359824936267e+37
9.541377774950702587e+03 4.709843144898787144e+37
9.539254030334828713e+03 4.709483435918593572e+37
9.537131230925739146e+03 4.698226108257600407e+37
9.535009376092551975e+03 4.668434736150932112e+37
9.532888465204956447e+03 4.627672513206357380e+37
9.530768497633192965e+03 4.580804556472870999e+37
9.528649472748062180e+03 4.530833842138761832e+37
9.526531389920930451e+03 4.471205292513166643e+37
9.524414248523715287e+03 4.412013169445250817e+37
9.522298047928899905e+03 4.344087869995410913e+37
9.520182787509520494e+03 4.273310537587252177e+37
9.518068466639169856e+03 4.196701731941849632e+37
9.515955084691999218e+03 4.115191911986127384e+37
9.513842641042716423e+03 4.033274671040629171e+37
9.511731135066582283e+03 3.944630582947159794e+37
9.509620566139410585e+03 3.849973994428751197e+37
9.507510933637573544e+03 3.752232056319827800e+37
9.505402236937994530e+03 3.651581795295583362e+37
9.503294475418144430e+03 3.547157669418162788e+37
9.501187648456058014e+03 3.439435278285475290e+37
9.499081755430310295e+03 3.332383048239380305e+37
9.496976795720029259e+03 3.223107663233861231e+37
9.494872768704899499e+03 3.110510357353058383e+37
9.492769673765149491e+03 3.022489884950522707e+37
9.490667510281555224e+03 2.977122147902436230e+37
9.488566277635449296e+03 2.953836783581126868e+37
9.486465975208702730e+03 2.939494659640432040e+37
9.484366602383737700e+03 2.933152383013531532e+37
9.482268158543523896e+03 2.931236072753666892e+37
9.480170643071576706e+03 2.934467840079076680e+37
9.478074055351951756e+03 2.942173839798179887e+37
9.475978394769259467e+03 2.953724839286756542e+37
9.473883660708646858e+03 2.968001400398989483e+37
9.471789852555803009e+03 2.989339366963591778e+37
9.469696969696969973e+03 3.013327885097376380e+37
9.467605011518920946e+03 3.040013791384285625e+37
9.465513977408973005e+03 3.070403136681220785e+37
9.463423866754992559e+03 3.101527606093045727e+37
9.461334678945377163e+03 3.136916275608413999e+37
9.459246413369068250e+03 3.178338117065787217e+37
9.457159069415547492e+03 3.221107082046272017e+37
9.455072646474834983e+03 3.264474460175171247e+37
9.452987143937483779e+03 3.305472024712961895e+37
9.450902561194594455e+03 3.344271348982479972e+37
9.448818897637795089e+03 3.383308681511675195e+37
9.446736152659255822e+03 3.425832088713282292e+37
9.444654325651681575e+03 3.470911866047898058e+37
9.442573416008310232e+03 3.515451679098839406e+37
9.440493423122914464e+03 3.557205094538353463e+37
9.438414346389807179e+03 3.596871489006249908e+37
9.436336185203825153e+03 3.635269233811604971e+37
9.434258938960343585e+03 3.673069808266643378e+37
9.432182607055272456e+03 3.708002279025995152e+37
9.430107188885047435e+03 3.741484711697937730e+37
9.428032683846637156e+03 3.769060310782941817e+37
9.425959091337543214e+03 3.793476772413873023e+37
9.423886410755796533e+03 3.811833035117776554e+37
9.421814641499951904e+03 3.831280923382097866e+37
9.419743782969102540e+03 3.846836142176164329e+37
9.417673834562863703e+03 3.854471461110639656e+37
9.415604795681376345e+03 3.856093006006409147e+37
9.413536665725312560e+03 3.855040684047893413e+37
9.411469444095871950e+03 3.855323183657559907e+37
9.409403130194774349e+03 3.851500010262532375e+37
9.407337723424270735e+03 3.842968318132335239e+37
9.405273223187134136e+03 3.838223038485478629e+37
9.403209628886659630e+03 3.839906817892571060e+37
9.401146939926671621e+03 3.841286817410831435e+37
9.399085155711511106e+03 3.834897808701964679e+37
9.397024275646044771e+03 3.825216389312198236e+37
9.394964299135663168e+03 3.813199095686941888e+37
9.392905225586275265e+03 3.794648767374026989e+37
9.390847054404306618e+03 3.770301739893396365e+37
9.388789784996713934e+03 3.742452077576802414e+37
9.386733416770965050e+03 3.724954402837118958e+37
9.384677949135044400e+03 3.709661395678292841e+37
9.382623381497467562e+03 3.690014177038126173e+37
9.380569713267253974e+03 3.673186646711734804e+37
9.378516943853945122e+03 3.654716134131641573e+37
9.376465072667604545e+03 3.633637229885717799e+37
9.374414099118805098e+03 3.611974036364707048e+37
9.372364022618638046e+03 3.592573709171533900e+37
9.370314842578711250e+03 3.570815007179347574e+37
9.368266558411141887e+03 3.549321927302940001e+37
9.366219169528567363e+03 3.525300264943353316e+37
9.364172675344132585e+03 3.499006225539198926e+37
9.362127075271502690e+03 3.475266012462946468e+37
9.360082368724844855e+03 3.452010451344500737e+37
9.358038555118846489e+03 3.427576469446111099e+37
9.355995633868704317e+03 3.402390360174874494e+37
9.353953604390122564e+03 3.393461087235393802e+37
9.351912466099316589e+03 3.389225817290476572e+37
9.349872218413016526e+03 3.388339006832642889e+37
9.347832860748449093e+03 3.396053037325060463e+37
9.345794392523364877e+03 3.409384159954303232e+37
9.343756813156009230e+03 3.424797194501121705e+37
9.341720122065142277e+03 3.442817568607824089e+37
9.339684318670028006e+03 3.461492349374370348e+37
9.337649402390439718e+03 3.481846094504038410e+37
9.335615372646647302e+03 3.503239705365138005e+37
9.333582228859437237e+03 3.526252357866724197e+37
9.331549970450092587e+03 3.547820790427382006e+37
9.329518596840402097e+03 3.567037121919543055e+37
9.327488107452663826e+03 3.589171325496423358e+37
9.325458501709668781e+03 3.611229859311027511e+37
9.323429779034713647e+03 3.635399002059903581e+37
9.321401938851602608e+03 3.658939643750229716e+37
9.319374980584636432e+03 3.681823234809414684e+37
9.317348903658610652e+03 3.707609220287437672e+37
9.315323707498835574e+03 3.729023699980269137e+37
9.313299391531107176e+03 3.750513918522417805e+37
9.311275955181725294e+03 3.772928263339672740e+37
9.309253397877489988e+03 3.794844238360135740e+37
9.307231719045699720e+03 3.817479474020983596e+37
9.305210918114144079e+03 3.839123332543487042e+37
9.303190994511116514e+03 3.860395378035513117e+37
9.301171947665405241e+03 3.881661565872433706e+37
9.299153777006291421e+03 3.902959606100434307e+37
9.297136481963554616e+03 3.923737553689950398e+37
9.295120061967467336e+03 3.946093751136624702e+37
9.293104516448793220e+03 3.966751015440173039e+37
9.291089844838799763e+03 3.985594782329156667e+37
9.289076046569234677e+03 4.004217784690350256e+37
9.287063121072345893e+03 4.021214112820076511e+37
9.285051067780872472e+03 4.043086860880308639e+37
9.283039886128044600e+03 4.061283165673671858e+37
9.281029575547579952e+03 4.075052639514129705e+37
9.279020135473694609e+03 4.089315697630812030e+37
9.277011565341084861e+03 4.102581756900495239e+37
9.275003864584943585e+03 4.114105291238319717e+37
9.272997032640949328e+03 4.124703375361022094e+37
9.270991068945271763e+03 4.134284372381097098e+37
9.268985972934560778e+03 4.143838794754755141e+37
9.266981744045964660e+03 4.155030049934729693e+37
9.264978381717110096e+03 4.167620078150179914e+37
9.262975885386111258e+03 4.179367526996473516e+37
9.260974254491571628e+03 4.190081616738138079e+37
9.258973488472578538e+03 4.200069143012949404e+37
9.256973586768697714e+03 4.208156684311464367e+37
9.254974548819991469e+03 4.214842326501769201e+37
9.252976374066993230e+03 4.222643991623338119e+37
9.250979061950722098e+03 4.227956448048194330e+37
9.248982611912690118e+03 4.231933625946462557e+37
9.246987023394876815e+03 4.232976674218327657e+37
9.244992295839752842e+03 4.236040831014603474e+37
9.242998428690267247e+03 4.240544797812705177e+37
9.241005421389847470e+03 4.242796251777447182e+37
9.239013273382401167e+03 4.248382246617665221e+37
9.237021984112321661e+03 4.258996458614474835e+37
9.235031553024473396e+03 4.268250462997575064e+37
9.233041979564199210e+03 4.277049388124427810e+37
9.231053263177327608e+03 4.281700946283130115e+37
9.229065403310158217e+03 4.273598626426824954e+37
9.227078399409465419e+03 4.263549520476232799e+37
9.225092250922509265e+03 4.249940838772989787e+37
9.223106957297015470e+03 4.233305638382494395e+37
9.221122517981188139e+03 4.216871346058278636e+37
9.219138932423711594e+03 4.197064912280855788e+37
9.217156200073737637e+03 4.176614417591153674e+37
9.215174320380892823e+03 4.153701428232488716e+37
9.213193292795283924e+03 4.129064385359200823e+37
9.211213116767479733e+03 4.103308728470361141e+37
9.209233791748525618e+03 4.074894407466288759e+37
9.207255317189945345e+03 4.050635931222015038e+37
9.205277692543724697e+03 4.018933883134814295e+37
9.203300917262324219e+03 3.983971920990599897e+37
9.201324990798675572e+03 3.942399162894180734e+37
9.199349912606176076e+03 3.893790752265310515e+37
9.197375682138695993e+03 3.854905301406634274e+37
9.195402298850574880e+03 3.815514236753359059e+37
9.193429762196616139e+03 3.778709858372736476e+37
9.191458071632096107e+03 3.746141328442904819e+37
9.189487226612754966e+03 3.710842333357940959e+37
9.187517226594800377e+03 3.670801394053320999e+37
9.185548071034903842e+03 3.660280448301728977e+37
9.183579759390209801e+03 3.658253823614508365e+37
9.181612291118321082e+03 3.653705282139836183e+37
9.179645665677304351e+03 3.647868820872777363e+37
9.177679882525697394e+03 3.639918172922035788e+37
9.175714941122496384e+03 3.632983166723486080e+37
9.173750840927159516e+03 3.627453518336869298e+37
9.171787581399614282e+03 3.619871105724806653e+37
9.169825162000244745e+03 3.612393609392934606e+37
9.167863582189896988e+03 3.602323720798061302e+37
9.165902841429880937e+03 3.597832945505656065e+37
9.163942939181966722e+03 3.589212520922074639e+37
9.161983874908379221e+03 3.578222895368041811e+37
9.160025648071814430e+03 3.591131133749687939e+37
9.158068258135417636e+03 3.612701557256510790e+37
9.156111704562794330e+03 3.630168462931772746e+37
9.154155986818015663e+03 3.647021419906577514e+37
9.152201104365600258e+03 3.662827391401193456e+37
9.150247056670528764e+03 3.675635555692942168e+37
