# wavelength(A) luminosity(erg/s/A)
1.000000000000000000e+04 2.407780132092747386e+37
9.997667210984103804e+03 2.412332034199140008e+37
9.995335510095288555e+03 2.416621655408165243e+37
9.993004896572398138e+03 2.420895328171710300e+37
9.990675369654989481e+03 2.425306959140366022e+37
9.988346928583318004e+03 2.421087281473404462e+37
9.986019572598363084e+03 2.398669021472451478e+37
9.983693300941797133e+03 2.364468746177848966e+37
9.981368112856000153e+03 2.328177090973926633e+37
9.979044007584074279e+03 2.290923385769791321e+37
9.976720984369805592e+03 2.248340767095414744e+37
9.974399042457691394e+03 2.202942257852263965e+37
9.972078181092938394e+03 2.162375584893434795e+37
9.969758399521451793e+03 2.117630388978847211e+37
9.967439696989833465e+03 2.077159061114803775e+37
9.965122072745391051e+03 2.043739517914107711e+37
9.962805526036134324e+03 2.012491173142134237e+37
9.960490056110758815e+03 1.991726965448933071e+37
9.958175662218682191e+03 1.970816949509422072e+37
9.955862343609996969e+03 1.947519815184845048e+37
9.953550099535501431e+03 1.930584879668595005e+37
9.951238929246690532e+03 1.913489241726446370e+37
9.948928831995755900e+03 1.898321223200837156e+37
9.946619807035574922e+03 1.888917577356361582e+37
9.944311853619728936e+03 1.877414075759042893e+37
9.942004971002486855e+03 1.864568442877883489e+37
9.939699158438805171e+03 1.855316156382273371e+37
9.937394415184338868e+03 1.844924676598260149e+37
9.935090740495432328e+03 1.838360597811482859e+37
9.932788133629108415e+03 1.830944637063818909e+37
9.930486593843097580e+03 1.822988663997364632e+37
9.928186120395803300e+03 1.815106880048974417e+37
9.925886712546320268e+03 1.806810278972820326e+37
9.923588369554430756e+03 1.801109149428621143e+37
9.921291090680602792e+03 1.795797096411810519e+37
9.918994875185979254e+03 1.791560609960972072e+37
9.916699722332408783e+03 1.787475050907653169e+37
9.914405631382398496e+03 1.783195199095625328e+37
9.912112601599152185e+03 1.780835248190929688e+37
9.909820632246555761e+03 1.779303647448849802e+37
9.907529722589168159e+03 1.778399291206500681e+37
9.905239871892230440e+03 1.778646047656600195e+37
9.902951079421667600e+03 1.779412885798653709e+37
9.900663344444077666e+03 1.781547225447055646e+37
9.898376666226738962e+03 1.784318965035220386e+37
9.896091044037604661e+03 1.787780929679189095e+37
9.893806477145308236e+03 1.791833623549110306e+37
9.891522964819148910e+03 1.796361257659434023e+37
9.889240506329115306e+03 1.801709629701968878e+37
9.886959100945854516e+03 1.807523982513133386e+37
9.884678747940692119e+03 1.813748266925503195e+37
9.882399446585630358e+03 1.820553431732151081e+37
9.880121196153340861e+03 1.827754239645213561e+37
9.877843995917157372e+03 1.834356776860244670e+37
9.875567845151095753e+03 1.841045261815619748e+37
9.873292743129835799e+03 1.847515175166979502e+37
9.871018689128717597e+03 1.854257315213268718e+37
9.868745682423765174e+03 1.860734562994364810e+37
9.866473722291653758e+03 1.866548432148638370e+37
9.864202808009733417e+03 1.871840865618672603e+37
9.861932938856016335e+03 1.876614221325714934e+37
9.859664114109178627e+03 1.881557383505021699e+37
9.857396333048563974e+03 1.886642691566746251e+37
9.855129594954172717e+03 1.891928735085920904e+37
9.852863899106672761e+03 1.896868044539674810e+37
9.850599244787390489e+03 1.901554203426884552e+37
9.848335631278314395e+03 1.905988935897496756e+37
9.846073057862089627e+03 1.910099283339789266e+37
9.843811523822023446e+03 1.914159289544687621e+37
9.841551028442083407e+03 1.918454808782924109e+37
9.839291571006888262e+03 1.922537567135694244e+37
9.837033150801717056e+03 1.925794903594386516e+37
9.834775767112510948e+03 1.925843959121474679e+37
9.832519419225853198e+03 1.921724607368042770e+37
9.830264106428990999e+03 1.914708362151121867e+37
9.828009828009828198e+03 1.905448163936554508e+37
9.825756583256910744e+03 1.892236715390775421e+37
9.823504371459444883e+03 1.876533800756519827e+37
9.821253191907286237e+03 1.859131119897290283e+37
9.819003043890945264e+03 1.837196613006800641e+37
9.816753926701569071e+03 1.812012571556970840e+37
9.814505839630974151e+03 1.786951319050779820e+37
9.812258781971610006e+03 1.771526325627427636e+37
9.810012753016577335e+03 1.760905396776976564e+37
9.807767752059631675e+03 1.753069349068962568e+37
9.805523778395163390e+03 1.749435120986837429e+37
9.803280831318212222e+03 1.747561977759345879e+37
9.801038910124472750e+03 1.745197872491880046e+37
9.798798014110270742e+03 1.742984996459367860e+37
9.796558142572575889e+03 1.739211503830821500e+37
9.794319294809010898e+03 1.732213895873713421e+37
9.792081470117831486e+03 1.727270844617987733e+37
9.789844667797937291e+03 1.718385260834040787e+37
9.787608887148870053e+03 1.706864056375209797e+37
9.785374127470808162e+03 1.693823626490913909e+37
9.783140388064568469e+03 1.680119156879842041e+37
9.780907668231611751e+03 1.675349450123650582e+37
9.778675967274031791e+03 1.672871464215474040e+37
9.776445284494557200e+03 1.670832149233004531e+37
9.774215619196560510e+03 1.671766694422786795e+37
9.771986970684039989e+03 1.674758309811573592e+37
9.769759338261632365e+03 1.680461215884343095e+37
9.767532721234616474e+03 1.689401747515201156e+37
9.765307118908889606e+03 1.696976022055890374e+37
9.763082530590991155e+03 1.703492138005584536e+37
9.760858955588091703e+03 1.712174789081530934e+37
9.758636393207989386e+03 1.719397925202587574e+37
9.756414842759113526e+03 1.726089448901520318e+37
9.754194303550526456e+03 1.733919053695849208e+37
9.751974774891916240e+03 1.741091816926881784e+37
9.749756256093596676e+03 1.750024027516089402e+37
9.747538746466518205e+03 1.757940690123108855e+37
9.745322245322246090e+03 1.763458039163560450e+37
9.743106751972978600e+03 1.768502677781452071e+37
9.740892265731541556e+03 1.771604512432475867e+37
9.738678785911377418e+03 1.775547574638768154e+37
9.736466311826559831e+03 1.779531888472548917e+37
9.734254842791784540e+03 1.783297454044976898e+37
9.732044378122365742e+03 1.786125362987811045e+37
9.729834917134237912e+03 1.787787016774481094e+37
9.727626459143968532e+03 1.789927322329769629e+37
9.725419003468732626e+03 1.790999806644139359e+37
9.723212549426329133e+03 1.792807704693576923e+37
9.721007096335180904e+03 1.793928902244578300e+37
9.718802643514320152e+03 1.795367812332013287e+37
9.716599190283399366e+03 1.798115462218248080e+37
9.714396735962696766e+03 1.799652953406576101e+37
9.712195279873094478e+03 1.802471963275431798e+37
9.709994821336094901e+03 1.805195935648237378e+37
9.707795359673818893e+03 1.807375943621238248e+37
9.705596894208994854e+03 1.809934689060478535e+37
9.703399424264966001e+03 1.811912377855720963e+37
9.701202949165697646e+03 1.814096743797137307e+37
9.699007468235751730e+03 1.816230484760168098e+37
9.696812980800310470e+03 1.818315694661317232e+37
9.694619486185167261e+03 1.819639468206677522e+37
9.692426983716724862e+03 1.821347172168692745e+37
9.690235472721986298e+03 1.822834572777999803e+37
9.688044952528580325e+03 1.824113642595534223e+37
9.685855422464728690e+03 1.825587651431889864e+37
9.683666881859262503e+03 1.827188788368032007e+37
9.681479330041629510e+03 1.828846611616688963e+37
9.679292766341874085e+03 1.830608294620355883e+37
9.677107190090642689e+03 1.832235669713325151e+37
9.674922600619194782e+03 1.833745927133997763e+37
9.672738997259391908e+03 1.835202897978248396e+37
9.670556379343692242e+03 1.836505761568153455e+37
9.668374746205161500e+03 1.837634091766068726e+37
9.666194097177471122e+03 1.838846029827560215e+37
9.664014431594883717e+03 1.840033354769736358e+37
9.661835748792271261e+03 1.841718816169793783e+37
9.659658048105096896e+03 1.843697633778159123e+37
9.657481328869431309e+03 1.845252686092355999e+37
9.655305590421936358e+03 1.846863446786230382e+37
9.653130832099877807e+03 1.848545310118497316e+37
9.650957053241112590e+03 1.850403422121608904e+37
9.648784253184099725e+03 1.852597991071159246e+37
9.646612431267887587e+03 1.854608445958494745e+37
9.644441586832122994e+03 1.856536585502055703e+37
9.642271719217049395e+03 1.859012146238450841e+37
9.640102827763495952e+03 1.861906349967647698e+37
9.637934911812893915e+03 1.865000449170542776e+37
9.635767970707265704e+03 1.868622003966741085e+37
9.633602003789217633e+03 1.872574315450960984e+37
9.631437010401950829e+03 1.876985690944140455e+37
9.629272989889263044e+03 1.881990408335180144e+37
9.627109941595532291e+03 1.887503941642397421e+37
9.624947864865731390e+03 1.892748971874539013e+37
9.622786759045420695e+03 1.897836683770989239e+37
9.620626623480744456e+03 1.903117732482383729e+37
9.618467457518434458e+03 1.908892419742570427e+37
9.616309260505819111e+03 1.915439408869389243e+37
9.614152031790797992e+03 1.922387007264008743e+37
9.611995770721860026e+03 1.929643606410817189e+37
9.609840476648087133e+03 1.937915155909725338e+37
9.607686148919137850e+03 1.947597921362043298e+37
9.605532786885245514e+03 1.958724871762718105e+37
9.603380389897243731e+03 1.971729738937393729e+37
9.601228957306537268e+03 1.985791784107706351e+37
9.599078488465107512e+03 2.001511322731150376e+37
9.596928982725527021e+03 2.019110913734718999e+37
9.594780439440944974e+03 2.037341763864739371e+37
9.592632857965083531e+03 2.055933459562245368e+37
9.590486237652250566e+03 2.074578066720091933e+37
9.588340577857325115e+03 2.093961759066001024e+37
9.586195877935771932e+03 2.114373215875695298e+37
9.584052137243626930e+03 2.135465723394921901e+37
9.581909355137500825e+03 2.157571909234295147e+37
9.579767530974582769e+03 2.180075444238408445e+37
9.577626664112633080e+03 2.202283142807562892e+37
9.575486753909990512e+03 2.224192416955199163e+37
9.573347799725563164e+03 2.245189732777008838e+37
9.571209800918835754e+03 2.265510528213466890e+37
9.569072756849862344e+03 2.284351517550893843e+37
9.566936666879264521e+03 2.302399307751894420e+37
9.564801530368245949e+03 2.318520315238653282e+37
9.562667346678568720e+03 2.332696978162991300e+37
9.560534115172567908e+03 2.342860558814303318e+37
9.558401835213153390e+03 2.349257646953266605e+37
9.556270506163793470e+03 2.353452680164013721e+37
9.554140127388534893e+03 2.354376439702345691e+37
9.552010698251982831e+03 2.354065560086020987e+37
9.549882218119309982e+03 2.353592929478751102e+37
9.547754686356256570e+03 2.353463863594601051e+37
9.545628102329132162e+03 2.353020790886137768e+37
9.543502465404802933e+03 2.334660884520098066e+37
9.541377774950702587e+03 2.295060476566949104e+37
9.539254030334828713e+03 2.244813892059637045e+37
9.537131230925739146e+03 2.182043635019862296e+37
9.535009376092551975e+03 2.105849443569585697e+37
9.532888465204956447e+03 2.021622126359207380e+37
9.530768497633192965e+03 1.928569526932231735e+37
9.528649472748062180e+03 1.824094921473687189e+37
9.526531389920930451e+03 1.709004057384576906e+37
9.524414248523715287e+03 1.599324394742191373e+37
9.522298047928899905e+03 1.515984837068364404e+37
9.520182787509520494e+03 1.466616678751307039e+37
9.518068466639169856e+03 1.431218394516722945e+37
9.515955084691999218e+03 1.411705681299328687e+37
9.513842641042716423e+03 1.406228965345406213e+37
9.511731135066582283e+03 1.411677057234011283e+37
9.509620566139410585e+03 1.425362354556810256e+37
9.507510933637573544e+03 1.446771354715524370e+37
9.505402236937994530e+03 1.469840625006478090e+37
9.503294475418144430e+03 1.500423910215926100e+37
9.501187648456058014e+03 1.534569838050241946e+37
9.499081755430310295e+03 1.563090439314315328e+37
9.496976795720029259e+03 1.594760094884576865e+37
9.494872768704899499e+03 1.633068222751969289e+37
9.492769673765149491e+03 1.673561207432127923e+37
9.490667510281555224e+03 1.716397265486959852e+37
9.488566277635449296e+03 1.751835101776444523e+37
9.486465975208702730e+03 1.782025713530599722e+37
9.484366602383737700e+03 1.805896855401694802e+37
9.482268158543523896e+03 1.829704028857699729e+37
9.480170643071576706e+03 1.857785353663051969e+37
9.478074055351951756e+03 1.884761623405409141e+37
9.475978394769259467e+03 1.911815465695629994e+37
9.473883660708646858e+03 1.930794607451244605e+37
9.471789852555803009e+03 1.949588382186109005e+37
9.469696969696969973e+03 1.967806284423194691e+37
9.467605011518920946e+03 1.987765485241566835e+37
9.465513977408973005e+03 2.008384275783939249e+37
9.463423866754992559e+03 2.026668479599576330e+37
9.461334678945377163e+03 2.046627148990255065e+37
9.459246413369068250e+03 2.066467877218959132e+37
9.457159069415547492e+03 2.084734616947682296e+37
9.455072646474834983e+03 2.096573816442607123e+37
9.452987143937483779e+03 2.100384638684905458e+37
9.450902561194594455e+03 2.101884909420602921e+37
9.448818897637795089e+03 2.099702887659678772e+37
9.446736152659255822e+03 2.097483205081512030e+37
9.444654325651681575e+03 2.091595266894024388e+37
9.442573416008310232e+03 2.084124977538841959e+37
9.440493423122914464e+03 2.073385775135504728e+37
9.438414346389807179e+03 2.052671702818067701e+37
9.436336185203825153e+03 2.034146297051946088e+37
9.434258938960343585e+03 2.020476333931356726e+37
9.432182607055272456e+03 2.010954991173302334e+37
9.430107188885047435e+03 1.997681452279290535e+37
9.428032683846637156e+03 1.986759835828408809e+37
9.425959091337543214e+03 1.974700681964952122e+37
9.423886410755796533e+03 1.964425023832481513e+37
9.421814641499951904e+03 1.949346394646728601e+37
9.419743782969102540e+03 1.930783061074361270e+37
9.417673834562863703e+03 1.924027937604585814e+37
9.415604795681376345e+03 1.923798718689741987e+37
9.413536665725312560e+03 1.925315368783016003e+37
9.411469444095871950e+03 1.928244920008528857e+37
9.409403130194774349e+03 1.934234292460672800e+37
9.407337723424270735e+03 1.942684128214602221e+37
9.405273223187134136e+03 1.949265432936069651e+37
9.403209628886659630e+03 1.950224582695979862e+37
9.401146939926671621e+03 1.944510873963269371e+37
9.399085155711511106e+03 1.933799577307886126e+37
9.397024275646044771e+03 1.912629168434990704e+37
9.394964299135663168e+03 1.887474632962064651e+37
9.392905225586275265e+03 1.855878186463090376e+37
9.390847054404306618e+03 1.818093977039931229e+37
9.388789784996713934e+03 1.775831514287281016e+37
9.386733416770965050e+03 1.729122549043403561e+37
9.384677949135044400e+03 1.695261392249850292e+37
9.382623381497467562e+03 1.661688687135405612e+37
9.380569713267253974e+03 1.633815908869366401e+37
9.378516943853945122e+03 1.617839093226730140e+37
9.376465072667604545e+03 1.614263809474332249e+37
9.374414099118805098e+03 1.619587476876343932e+37
9.372364022618638046e+03 1.630646665141000944e+37
9.370314842578711250e+03 1.645408707963611252e+37
9.368266558411141887e+03 1.658870130313736619e+37
9.366219169528567363e+03 1.678219089781185237e+37
9.364172675344132585e+03 1.696368658216950651e+37
9.362127075271502690e+03 1.714477931855575012e+37
9.360082368724844855e+03 1.735552533204171576e+37
9.358038555118846489e+03 1.757423125050099738e+37
9.355995633868704317e+03 1.781574194789712092e+37
9.353953604390122564e+03 1.803086672813980455e+37
9.351912466099316589e+03 1.823784672912820166e+37
9.349872218413016526e+03 1.841103624746144525e+37
9.347832860748449093e+03 1.857664807227582388e+37
9.345794392523364877e+03 1.872715385749205152e+37
9.343756813156009230e+03 1.886472869759029940e+37
9.341720122065142277e+03 1.900855499513523884e+37
9.339684318670028006e+03 1.911196680902500993e+37
9.337649402390439718e+03 1.922730732135747871e+37
9.335615372646647302e+03 1.930393865480905060e+37
9.333582228859437237e+03 1.937383430857405995e+37
9.331549970450092587e+03 1.942270673907140367e+37
9.329518596840402097e+03 1.944585645463078558e+37
9.327488107452663826e+03 1.946264561088995116e+37
9.325458501709668781e+03 1.947563931260356313e+37
9.323429779034713647e+03 1.949407516406402085e+37
9.321401938851602608e+03 1.948083999440579232e+37
9.319374980584636432e+03 1.947571471959911749e+37
9.317348903658610652e+03 1.946215456139086582e+37
9.315323707498835574e+03 1.944847128822491147e+37
9.313299391531107176e+03 1.944184371576841219e+37
9.311275955181725294e+03 1.944384098066570561e+37
9.309253397877489988e+03 1.944490120119175132e+37
9.307231719045699720e+03 1.944739837317930680e+37
9.305210918114144079e+03 1.945221017841890435e+37
9.303190994511116514e+03 1.945760174726335088e+37
9.301171947665405241e+03 1.946758913348724732e+37
9.299153777006291421e+03 1.946594748335451107e+37
9.297136481963554616e+03 1.950498380126502919e+37
9.295120061967467336e+03 1.956367006015000981e+37
9.293104516448793220e+03 1.964709327346461946e+37
9.291089844838799763e+03 1.974447839960509877e+37
9.289076046569234677e+03 1.984767244595045506e+37
9.287063121072345893e+03 1.995627151593347807e+37
9.285051067780872472e+03 2.005614626036891952e+37
9.283039886128044600e+03 2.015165951830785179e+37
9.281029575547579952e+03 2.023802165696120700e+37
9.279020135473694609e+03 2.032496854780714877e+37
9.277011565341084861e+03 2.041936062232126334e+37
9.275003864584943585e+03 2.051114329782925115e+37
9.272997032640949328e+03 2.060869025989807818e+37
9.270991068945271763e+03 2.070373601452681971e+37
9.268985972934560778e+03 2.084695372433796085e+37
9.266981744045964660e+03 2.100448803676664489e+37
9.264978381717110096e+03 2.116851382285339340e+37
9.262975885386111258e+03 2.132677493571610256e+37
9.260974254491571628e+03 2.147278030806733269e+37
9.258973488472578538e+03 2.159714144239676147e+37
9.256973586768697714e+03 2.170329897843727171e+37
9.254974548819991469e+03 2.178872559306929025e+37
9.252976374066993230e+03 2.184237503878959814e+37
9.250979061950722098e+03 2.186962544011747259e+37
9.248982611912690118e+03 2.187978517421046576e+37
9.246987023394876815e+03 2.183874799024535108e+37
9.244992295839752842e+03 2.176573573097364538e+37
9.242998428690267247e+03 2.167515548771953567e+37
9.241005421389847470e+03 2.155364470487167584e+37
9.239013273382401167e+03 2.140545453101680312e+37
9.237021984112321661e+03 2.123926899269379269e+37
9.235031553024473396e+03 2.095792756081833487e+37
9.233041979564199210e+03 2.063404705406783998e+37
9.231053263177327608e+03 2.028710946510629082e+37
9.229065403310158217e+03 1.988214917479398912e+37
9.227078399409465419e+03 1.950855758265586473e+37
9.225092250922509265e+03 1.914262593756716967e+37
9.223106957297015470e+03 1.880343528198150955e+37
9.221122517981188139e+03 1.844534821596601920e+37
9.219138932423711594e+03 1.809187426722029295e+37
9.217156200073737637e+03 1.782748783715021394e+37
9.215174320380892823e+03 1.780261113266761742e+37
9.213193292795283924e+03 1.785332160796051569e+37
9.211213116767479733e+03 1.791529989515207035e+37
9.209233791748525618e+03 1.795917339849894424e+37
9.207255317189945345e+03 1.801311985116086342e+37
9.205277692543724697e+03 1.802854413354082567e+37
9.203300917262324219e+03 1.803488274167696006e+37
9.201324990798675572e+03 1.804671623738589940e+37
9.199349912606176076e+03 1.800215311217790252e+37
9.197375682138695993e+03 1.796300794169172854e+37
9.195402298850574880e+03 1.789242701569307403e+37
9.193429762196616139e+03 1.775235620963933035e+37
9.191458071632096107e+03 1.765150503794458928e+37
9.189487226612754966e+03 1.781473863640654810e+37
9.187517226594800377e+03 1.803708128100697612e+37
9.185548071034903842e+03 1.827564011079915941e+37
9.183579759390209801e+03 1.854163489641643179e+37
9.181612291118321082e+03 1.876454877606343320e+37
9.179645665677304351e+03 1.895580063723406673e+37
9.177679882525697394e+03 1.914802661436219002e+37
9.175714941122496384e+03 1.933694083688898277e+37
9.173750840927159516e+03 1.953991433671090147e+37
9.171787581399614282e+03 1.971656642760848885e+37
9.169825162000244745e+03 1.988180423087834438e+37
9.167863582189896988e+03 1.996984206509164559e+37
9.165902841429880937e+03 2.001031445626400439e+37
9.163942939181966722e+03 2.000513408418900808e+37
9.161983874908379221e+03 1.998743448217350704e+37
9.160025648071814430e+03 1.994750012912363603e+37
9.158068258135417636e+03 1.988270700582596448e+37
9.156111704562794330e+03 1.979528159629247477e+37
9.154155986818015663e+03 1.969018053765949722e+37
9.152201104365600258e+03 1.957659223456397849e+37
9.150247056670528764e+03 1.949396930461116644e+37
