# wavelength(A) luminosity(erg/s/A)
1.000000000000000000e+04 1.500271860925900155e+37
9.997667210984103804e+03 1.501444491193563403e+37
9.995335510095288555e+03 1.502683373880488156e+37
9.993004896572398138e+03 1.504111452539752444e+37
9.990675369654989481e+03 1.505575532702356419e+37
9.988346928583318004e+03 1.500157177046768549e+37
9.986019572598363084e+03 1.490269060485258400e+37
9.983693300941797133e+03 1.477512785223804993e+37
9.981368112856000153e+03 1.466770928062663725e+37
9.979044007584074279e+03 1.455068765478984986e+37
9.976720984369805592e+03 1.443883021846561133e+37
9.974399042457691394e+03 1.432688017049979936e+37
9.972078181092938394e+03 1.420776989338493972e+37
9.969758399521451793e+03 1.416238573732694309e+37
9.967439696989833465e+03 1.411193155904572272e+37
9.965122072745391051e+03 1.407875202649078134e+37
9.962805526036134324e+03 1.402963781281148246e+37
9.960490056110758815e+03 1.402218786226376490e+37
9.958175662218682191e+03 1.399554736035257146e+37
9.955862343609996969e+03 1.396860521219102586e+37
9.953550099535501431e+03 1.395000192614901175e+37
9.951238929246690532e+03 1.393446097773647269e+37
9.948928831995755900e+03 1.392901042051791396e+37
9.946619807035574922e+03 1.391792231066460469e+37
9.944311853619728936e+03 1.390440653575422339e+37
9.942004971002486855e+03 1.389028559735038460e+37
9.939699158438805171e+03 1.387641737326774180e+37
9.937394415184338868e+03 1.385776437131824793e+37
9.935090740495432328e+03 1.385107117657200636e+37
9.932788133629108415e+03 1.384147568515314439e+37
9.930486593843097580e+03 1.383559341704996264e+37
9.928186120395803300e+03 1.383340234630876418e+37
9.925886712546320268e+03 1.383034142689428288e+37
9.923588369554430756e+03 1.383029738480587188e+37
9.921291090680602792e+03 1.382804654732550690e+37
9.918994875185979254e+03 1.382966503697170530e+37
9.916699722332408783e+03 1.382915685261991671e+37
9.914405631382398496e+03 1.382980886883354835e+37
9.912112601599152185e+03 1.383218091847895227e+37
9.909820632246555761e+03 1.383607020463992725e+37
9.907529722589168159e+03 1.384149472944185865e+37
9.905239871892230440e+03 1.384938004717464427e+37
9.902951079421667600e+03 1.386200045490873047e+37
9.900663344444077666e+03 1.387588390766442526e+37
9.898376666226738962e+03 1.389026104378884793e+37
9.896091044037604661e+03 1.390390085936298685e+37
9.893806477145308236e+03 1.391740795390036043e+37
9.891522964819148910e+03 1.392964261163974907e+37
9.889240506329115306e+03 1.394403528210314952e+37
9.886959100945854516e+03 1.396145402319559774e+37
9.884678747940692119e+03 1.398102944679948497e+37
9.882399446585630358e+03 1.399918227645484397e+37
9.880121196153340861e+03 1.401435845136248743e+37
9.877843995917157372e+03 1.402440507808180811e+37
9.875567845151095753e+03 1.403333355939913222e+37
9.873292743129835799e+03 1.404102379942857038e+37
9.871018689128717597e+03 1.404583704567534948e+37
9.868745682423765174e+03 1.404975695916870875e+37
9.866473722291653758e+03 1.405214922719514438e+37
9.864202808009733417e+03 1.405854865979715699e+37
9.861932938856016335e+03 1.406885086548642417e+37
9.859664114109178627e+03 1.408387025106202040e+37
9.857396333048563974e+03 1.410004765314592787e+37
9.855129594954172717e+03 1.411625617724177058e+37
9.852863899106672761e+03 1.413332951928446475e+37
9.850599244787390489e+03 1.414879730783954505e+37
9.848335631278314395e+03 1.416653824610177828e+37
9.846073057862089627e+03 1.418257885841452562e+37
9.843811523822023446e+03 1.419766787425700720e+37
9.841551028442083407e+03 1.421161038342066128e+37
9.839291571006888262e+03 1.422487817812319484e+37
9.837033150801717056e+03 1.423842994649194258e+37
9.834775767112510948e+03 1.423924464235464180e+37
9.832519419225853198e+03 1.423300741144626738e+37
9.830264106428990999e+03 1.421910636576253088e+37
9.828009828009828198e+03 1.420110042685576355e+37
9.825756583256910744e+03 1.417743447085701332e+37
9.823504371459444883e+03 1.414444942912697080e+37
9.821253191907286237e+03 1.410301803997456280e+37
9.819003043890945264e+03 1.405301311305995751e+37
9.816753926701569071e+03 1.401324428067997127e+37
9.814505839630974151e+03 1.398604465237655284e+37
9.812258781971610006e+03 1.396793417604719879e+37
9.810012753016577335e+03 1.395633559094665904e+37
9.807767752059631675e+03 1.395179103284457341e+37
9.805523778395163390e+03 1.395355188247279952e+37
9.803280831318212222e+03 1.395210567101196218e+37
9.801038910124472750e+03 1.395534608701990993e+37
9.798798014110270742e+03 1.395288345474240568e+37
9.796558142572575889e+03 1.395109706388044111e+37
9.794319294809010898e+03 1.394343539020689552e+37
9.792081470117831486e+03 1.393097560732187455e+37
9.789844667797937291e+03 1.391883749569771447e+37
9.787608887148870053e+03 1.389401971243613275e+37
9.785374127470808162e+03 1.387780903118555370e+37
9.783140388064568469e+03 1.386940155386153177e+37
9.780907668231611751e+03 1.387370460754726724e+37
9.778675967274031791e+03 1.388069284924697634e+37
9.776445284494557200e+03 1.388831149854703548e+37
9.774215619196560510e+03 1.390053213272697876e+37
9.771986970684039989e+03 1.391283856246286301e+37
9.769759338261632365e+03 1.393674661082154176e+37
9.767532721234616474e+03 1.396152945470319979e+37
9.765307118908889606e+03 1.399239745098257504e+37
9.763082530590991155e+03 1.402175293432041136e+37
9.760858955588091703e+03 1.404903833254426500e+37
9.758636393207989386e+03 1.407905527016681143e+37
9.756414842759113526e+03 1.410355677973897364e+37
9.754194303550526456e+03 1.412817122234735843e+37
9.751974774891916240e+03 1.414477184689242286e+37
9.749756256093596676e+03 1.416729912696169896e+37
9.747538746466518205e+03 1.418531638618278827e+37
9.745322245322246090e+03 1.420214716134157785e+37
9.743106751972978600e+03 1.421619757526136954e+37
9.740892265731541556e+03 1.422500429228783067e+37
9.738678785911377418e+03 1.422683525049049004e+37
9.736466311826559831e+03 1.422359201106521979e+37
9.734254842791784540e+03 1.421927150959509540e+37
9.732044378122365742e+03 1.421199701920145302e+37
9.729834917134237912e+03 1.420068789748698436e+37
9.727626459143968532e+03 1.418841174486441090e+37
9.725419003468732626e+03 1.417264794943883195e+37
9.723212549426329133e+03 1.415681499968966041e+37
9.721007096335180904e+03 1.415763075582075758e+37
9.718802643514320152e+03 1.416029797769016112e+37
9.716599190283399366e+03 1.416651144041098479e+37
9.714396735962696766e+03 1.417162521558214300e+37
9.712195279873094478e+03 1.418123877968046049e+37
9.709994821336094901e+03 1.419064443065038450e+37
9.707795359673818893e+03 1.420014148403160191e+37
9.705596894208994854e+03 1.421257141048672841e+37
9.703399424264966001e+03 1.422484457243213374e+37
9.701202949165697646e+03 1.423970824894812429e+37
9.699007468235751730e+03 1.425309980643604869e+37
9.696812980800310470e+03 1.426670571301420923e+37
9.694619486185167261e+03 1.428209112452870547e+37
9.692426983716724862e+03 1.429284096033095357e+37
9.690235472721986298e+03 1.430454226110145401e+37
9.688044952528580325e+03 1.431761990581908310e+37
9.685855422464728690e+03 1.433165337387101152e+37
9.683666881859262503e+03 1.434378047655693346e+37
9.681479330041629510e+03 1.434909480865311645e+37
9.679292766341874085e+03 1.435171038896239674e+37
9.677107190090642689e+03 1.435536700494950086e+37
9.674922600619194782e+03 1.436077198216556364e+37
9.672738997259391908e+03 1.436619550709924346e+37
9.670556379343692242e+03 1.436919551361690150e+37
9.668374746205161500e+03 1.436811892038594632e+37
9.666194097177471122e+03 1.436804396848368349e+37
9.664014431594883717e+03 1.437490618683580260e+37
9.661835748792271261e+03 1.438198167494446846e+37
9.659658048105096896e+03 1.438805075850904748e+37
9.657481328869431309e+03 1.439263725954398733e+37
9.655305590421936358e+03 1.439841927091140541e+37
9.653130832099877807e+03 1.440352638386885127e+37
9.650957053241112590e+03 1.440835143975418154e+37
9.648784253184099725e+03 1.441344766261365436e+37
9.646612431267887587e+03 1.441930034687003153e+37
9.644441586832122994e+03 1.442531438281506854e+37
9.642271719217049395e+03 1.443229796979933029e+37
9.640102827763495952e+03 1.444111743067189917e+37
9.637934911812893915e+03 1.445084522519067155e+37
9.635767970707265704e+03 1.446071544326750156e+37
9.633602003789217633e+03 1.447218334160350774e+37
9.631437010401950829e+03 1.448820878213211179e+37
9.629272989889263044e+03 1.450251708607862096e+37
9.627109941595532291e+03 1.451752853220837887e+37
9.624947864865731390e+03 1.453436158533909416e+37
9.622786759045420695e+03 1.455361297980166914e+37
9.620626623480744456e+03 1.457269006322702342e+37
9.618467457518434458e+03 1.459198375312775122e+37
9.616309260505819111e+03 1.461192483982237182e+37
9.614152031790797992e+03 1.463447066901505916e+37
9.611995770721860026e+03 1.465763035049359849e+37
9.609840476648087133e+03 1.468203859967792328e+37
9.607686148919137850e+03 1.471032782538108125e+37
9.605532786885245514e+03 1.474279976403234646e+37
9.603380389897243731e+03 1.478006267403431599e+37
9.601228957306537268e+03 1.482049950218240797e+37
9.599078488465107512e+03 1.486493126470356405e+37
9.596928982725527021e+03 1.491055459635682260e+37
9.594780439440944974e+03 1.496009635715844761e+37
9.592632857965083531e+03 1.501165841375568851e+37
9.590486237652250566e+03 1.506418671362810426e+37
9.588340577857325115e+03 1.511890464176126247e+37
9.586195877935771932e+03 1.517656196356106222e+37
9.584052137243626930e+03 1.523654973301992022e+37
9.581909355137500825e+03 1.529797519941902770e+37
9.579767530974582769e+03 1.536059826537055194e+37
9.577626664112633080e+03 1.542353332021841206e+37
9.575486753909990512e+03 1.548462411463105323e+37
9.573347799725563164e+03 1.554449804119008712e+37
9.571209800918835754e+03 1.560224150556746725e+37
9.569072756849862344e+03 1.566168799767637071e+37
9.566936666879264521e+03 1.571996822300917269e+37
9.564801530368245949e+03 1.577230577644576710e+37
9.562667346678568720e+03 1.581975783757378002e+37
9.560534115172567908e+03 1.585629401848174514e+37
9.558401835213153390e+03 1.588413882794370466e+37
9.556270506163793470e+03 1.590012041764162213e+37
9.554140127388534893e+03 1.590618373116232524e+37
9.552010698251982831e+03 1.590847652421363844e+37
9.549882218119309982e+03 1.591021623183870865e+37
9.547754686356256570e+03 1.591201163121697561e+37
9.545628102329132162e+03 1.590088905247329951e+37
9.543502465404802933e+03 1.584017172812835928e+37
9.541377774950702587e+03 1.571916114772133414e+37
9.539254030334828713e+03 1.556656425773221479e+37
9.537131230925739146e+03 1.538263929848271606e+37
9.535009376092551975e+03 1.515965885434804180e+37
9.532888465204956447e+03 1.491170604959999991e+37
9.530768497633192965e+03 1.463069205929313638e+37
9.528649472748062180e+03 1.431703166851966384e+37
9.526531389920930451e+03 1.407477312001139009e+37
9.524414248523715287e+03 1.390886257429353752e+37
9.522298047928899905e+03 1.377952400194311966e+37
9.520182787509520494e+03 1.367884212481819767e+37
9.518068466639169856e+03 1.361530547971993727e+37
9.515955084691999218e+03 1.358818406262686992e+37
9.513842641042716423e+03 1.358656554578219704e+37
9.511731135066582283e+03 1.362668333084033602e+37
9.509620566139410585e+03 1.369167940343489057e+37
9.507510933637573544e+03 1.377298413125245465e+37
9.505402236937994530e+03 1.387609261414463131e+37
9.503294475418144430e+03 1.398364010551315140e+37
9.501187648456058014e+03 1.410936836684563445e+37
9.499081755430310295e+03 1.422773999128972358e+37
9.496976795720029259e+03 1.433621218138022957e+37
9.494872768704899499e+03 1.442518128594913972e+37
9.492769673765149491e+03 1.451996071828773511e+37
9.490667510281555224e+03 1.462615810637471347e+37
9.488566277635449296e+03 1.472193721280164841e+37
9.486465975208702730e+03 1.481707768576007247e+37
9.484366602383737700e+03 1.488619645589957576e+37
9.482268158543523896e+03 1.494879628077794952e+37
9.480170643071576706e+03 1.502023589073004845e+37
9.478074055351951756e+03 1.510346940012311541e+37
9.475978394769259467e+03 1.518476004553029313e+37
9.473883660708646858e+03 1.524590481761934962e+37
9.471789852555803009e+03 1.530133135832354376e+37
9.469696969696969973e+03 1.535965179766938079e+37
9.467605011518920946e+03 1.542449035729400603e+37
9.465513977408973005e+03 1.549073913124462417e+37
9.463423866754992559e+03 1.555414317727031711e+37
9.461334678945377163e+03 1.561730252246943196e+37
9.459246413369068250e+03 1.568288134694444177e+37
9.457159069415547492e+03 1.573942210216945861e+37
9.455072646474834983e+03 1.578032766039245853e+37
9.452987143937483779e+03 1.580975769542864459e+37
9.450902561194594455e+03 1.582480870382332575e+37
9.448818897637795089e+03 1.582749228225045577e+37
9.446736152659255822e+03 1.582398183561774965e+37
9.444654325651681575e+03 1.582088256205109835e+37
9.442573416008310232e+03 1.580632828729543546e+37
9.440493423122914464e+03 1.578989272481902989e+37
9.438414346389807179e+03 1.575378424863910910e+37
9.436336185203825153e+03 1.571039855703645294e+37
9.434258938960343585e+03 1.566438077440379501e+37
9.432182607055272456e+03 1.561453441250292311e+37
9.430107188885047435e+03 1.556384385597865207e+37
9.428032683846637156e+03 1.550596547721711907e+37
9.425959091337543214e+03 1.543848596649083567e+37
9.423886410755796533e+03 1.535851756045576557e+37
9.421814641499951904e+03 1.528568765143019690e+37
9.419743782969102540e+03 1.524603082502540387e+37
9.417673834562863703e+03 1.521566443024263775e+37
9.415604795681376345e+03 1.519136224579514429e+37
9.413536665725312560e+03 1.517231103624782397e+37
9.411469444095871950e+03 1.515687388122360940e+37
9.409403130194774349e+03 1.514236041006940975e+37
9.407337723424270735e+03 1.514291379736962214e+37
9.405273223187134136e+03 1.515407043870861466e+37
9.403209628886659630e+03 1.515246664742636108e+37
9.401146939926671621e+03 1.514866357263805196e+37
9.399085155711511106e+03 1.510449535878439650e+37
9.397024275646044771e+03 1.502576671590871946e+37
9.394964299135663168e+03 1.493248627602000903e+37
9.392905225586275265e+03 1.480835941653335142e+37
9.390847054404306618e+03 1.467486705075337799e+37
9.388789784996713934e+03 1.455780091871592368e+37
9.386733416770965050e+03 1.444805518634421273e+37
9.384677949135044400e+03 1.434316365352921817e+37
9.382623381497467562e+03 1.425751373241936411e+37
9.380569713267253974e+03 1.422384812814148609e+37
9.378516943853945122e+03 1.420346030854671728e+37
9.376465072667604545e+03 1.420193994902835327e+37
9.374414099118805098e+03 1.422450596733779154e+37
9.372364022618638046e+03 1.426473230974357334e+37
9.370314842578711250e+03 1.431543095235552514e+37
9.368266558411141887e+03 1.437328973256289350e+37
9.366219169528567363e+03 1.444195601693446487e+37
9.364172675344132585e+03 1.451305017843900282e+37
9.362127075271502690e+03 1.460198340661033893e+37
9.360082368724844855e+03 1.468409184602848567e+37
9.358038555118846489e+03 1.475748070488159140e+37
9.355995633868704317e+03 1.484049204155316740e+37
9.353953604390122564e+03 1.490477925396779823e+37
9.351912466099316589e+03 1.497263935359662313e+37
9.349872218413016526e+03 1.503113101809839787e+37
9.347832860748449093e+03 1.508651070157743134e+37
9.345794392523364877e+03 1.513185893664399000e+37
9.343756813156009230e+03 1.518043587829685450e+37
9.341720122065142277e+03 1.522616176158532344e+37
9.339684318670028006e+03 1.526176346180102293e+37
9.337649402390439718e+03 1.529288726645137404e+37
9.335615372646647302e+03 1.531587534978070659e+37
9.333582228859437237e+03 1.533159627672295712e+37
9.331549970450092587e+03 1.534011302592695023e+37
9.329518596840402097e+03 1.534042848399609872e+37
9.327488107452663826e+03 1.533498268042137764e+37
9.325458501709668781e+03 1.532410740639957219e+37
9.323429779034713647e+03 1.531166256920393088e+37
9.321401938851602608e+03 1.529856907866272491e+37
9.319374980584636432e+03 1.529585847236126460e+37
9.317348903658610652e+03 1.529612735967558252e+37
9.315323707498835574e+03 1.528657010572966773e+37
9.313299391531107176e+03 1.527504563389074961e+37
9.311275955181725294e+03 1.526813037375593522e+37
9.309253397877489988e+03 1.526038528641719629e+37
9.307231719045699720e+03 1.525173881367412459e+37
9.305210918114144079e+03 1.524715183573343590e+37
9.303190994511116514e+03 1.524689775461850450e+37
9.301171947665405241e+03 1.524397789641218201e+37
9.299153777006291421e+03 1.525869273379451822e+37
9.297136481963554616e+03 1.527675579177664481e+37
9.295120061967467336e+03 1.529970119834903753e+37
9.293104516448793220e+03 1.533013601470057718e+37
9.291089844838799763e+03 1.536712037525514823e+37
9.289076046569234677e+03 1.540823417009124301e+37
9.287063121072345893e+03 1.544518118970928434e+37
9.285051067780872472e+03 1.548605030356487675e+37
9.283039886128044600e+03 1.552781941725156089e+37
9.281029575547579952e+03 1.557256833259729694e+37
9.279020135473694609e+03 1.561689642059493814e+37
9.277011565341084861e+03 1.566129137178029309e+37
9.275003864584943585e+03 1.571263448411274812e+37
9.272997032640949328e+03 1.576107774365453176e+37
9.270991068945271763e+03 1.581556399157105127e+37
9.268985972934560778e+03 1.586264101842474731e+37
9.266981744045964660e+03 1.591480397049941430e+37
9.264978381717110096e+03 1.596434252098234885e+37
9.262975885386111258e+03 1.601047114750189966e+37
9.260974254491571628e+03 1.605199769547794407e+37
9.258973488472578538e+03 1.608493863454105836e+37
9.256973586768697714e+03 1.611197237735955974e+37
9.254974548819991469e+03 1.613211287897235504e+37
9.252976374066993230e+03 1.614637719035785370e+37
9.250979061950722098e+03 1.615376764139270655e+37
9.248982611912690118e+03 1.615403720721273297e+37
9.246987023394876815e+03 1.614058958548776332e+37
9.244992295839752842e+03 1.611250569848592482e+37
9.242998428690267247e+03 1.606432458837192883e+37
9.241005421389847470e+03 1.601506182841034913e+37
9.239013273382401167e+03 1.596359042825238478e+37
9.237021984112321661e+03 1.589849872159643677e+37
9.235031553024473396e+03 1.581103371819116590e+37
9.233041979564199210e+03 1.571039509768033757e+37
9.231053263177327608e+03 1.560692465905737875e+37
9.229065403310158217e+03 1.550031099101038116e+37
9.227078399409465419e+03 1.541702853902446892e+37
9.225092250922509265e+03 1.533658906676888237e+37
9.223106957297015470e+03 1.525140838304176340e+37
9.221122517981188139e+03 1.516652427596669830e+37
9.219138932423711594e+03 1.514062461025061405e+37
9.217156200073737637e+03 1.513390168948352569e+37
9.215174320380892823e+03 1.513709229986745049e+37
9.213193292795283924e+03 1.514662287895467030e+37
9.211213116767479733e+03 1.516146146780598985e+37
9.209233791748525618e+03 1.516984861044519483e+37
9.207255317189945345e+03 1.517124876507452820e+37
9.205277692543724697e+03 1.518231148485131009e+37
9.203300917262324219e+03 1.518681284297367756e+37
9.201324990798675572e+03 1.519750421556972037e+37
9.199349912606176076e+03 1.519921973805782937e+37
9.197375682138695993e+03 1.520283621986820495e+37
9.195402298850574880e+03 1.520108250231407063e+37
9.193429762196616139e+03 1.523405986884560160e+37
9.191458071632096107e+03 1.528945007059214152e+37
9.189487226612754966e+03 1.532319879487482717e+37
9.187517226594800377e+03 1.537208751569932135e+37
9.185548071034903842e+03 1.541664142016614716e+37
9.183579759390209801e+03 1.547827178810334545e+37
9.181612291118321082e+03 1.552089518843321344e+37
9.179645665677304351e+03 1.555540851057477501e+37
9.177679882525697394e+03 1.558712748546329709e+37
9.175714941122496384e+03 1.562025300877230973e+37
9.173750840927159516e+03 1.566128496462469473e+37
9.171787581399614282e+03 1.569560245530048901e+37
9.169825162000244745e+03 1.572537229800174998e+37
9.167863582189896988e+03 1.574139459230918679e+37
9.165902841429880937e+03 1.574418661457757204e+37
9.163942939181966722e+03 1.574521451230351800e+37
9.161983874908379221e+03 1.574313530536615992e+37
9.160025648071814430e+03 1.573911384145371150e+37
9.158068258135417636e+03 1.572783557449475230e+37
9.156111704562794330e+03 1.571353482769988257e+37
9.154155986818015663e+03 1.569956343492659406e+37
9.152201104365600258e+03 1.568382755446489773e+37
9.150247056670528764e+03 1.569116922816890185e+37
