# wavelength(A) luminosity(erg/s/A)
1.000000000000000000e+04 6.906865654218329623e+36
9.997667210984103804e+03 6.909454863177791224e+36
9.995335510095288555e+03 6.912318157510135375e+36
9.993004896572398138e+03 6.914044417371429780e+36
9.990675369654989481e+03 6.908425566420740463e+36
9.988346928583318004e+03 6.903004390855606993e+36
9.986019572598363084e+03 6.898481272442989013e+36
9.983693300941797133e+03 6.900619297384103021e+36
9.981368112856000153e+03 6.903604661635353121e+36
9.979044007584074279e+03 6.907649349366849869e+36
9.976720984369805592e+03 6.910647393792258266e+36
9.974399042457691394e+03 6.913553505282161119e+36
9.972078181092938394e+03 6.916262272815264126e+36
9.969758399521451793e+03 6.918743161633533563e+36
9.967439696989833465e+03 6.921625423537278660e+36
9.965122072745391051e+03 6.924290870536728347e+36
9.962805526036134324e+03 6.927019299535620830e+36
9.960490056110758815e+03 6.929657423051610964e+36
9.958175662218682191e+03 6.932082688578353519e+36
9.955862343609996969e+03 6.934258574630342795e+36
9.953550099535501431e+03 6.936613737610939441e+36
9.951238929246690532e+03 6.939109720692176387e+36
9.948928831995755900e+03 6.941575505007482307e+36
9.946619807035574922e+03 6.944355002244287161e+36
9.944311853619728936e+03 6.946394955984404474e+36
9.942004971002486855e+03 6.949068059883383304e+36
9.939699158438805171e+03 6.951557409915283489e+36
9.937394415184338868e+03 6.954180026452867909e+36
9.935090740495432328e+03 6.956716765248499322e+36
9.932788133629108415e+03 6.959172293630522882e+36
9.930486593843097580e+03 6.961604967599894903e+36
9.928186120395803300e+03 6.964109174785396719e+36
9.925886712546320268e+03 6.965764663110948250e+36
9.923588369554430756e+03 6.967053663838904829e+36
9.921291090680602792e+03 6.968282135582406678e+36
9.918994875185979254e+03 6.969136607507936994e+36
9.916699722332408783e+03 6.970666686359602843e+36
9.914405631382398496e+03 6.972357425598887764e+36
9.912112601599152185e+03 6.974381078193842119e+36
9.909820632246555761e+03 6.976449331777468119e+36
9.907529722589168159e+03 6.978546107870629687e+36
9.905239871892230440e+03 6.980760255080533839e+36
9.902951079421667600e+03 6.983515994548919848e+36
9.900663344444077666e+03 6.986833206908999900e+36
9.898376666226738962e+03 6.990243204117790690e+36
9.896091044037604661e+03 6.993170821512269096e+36
9.893806477145308236e+03 6.995791250689885990e+36
9.891522964819148910e+03 6.998324792181344314e+36
9.889240506329115306e+03 7.000760727724443726e+36
9.886959100945854516e+03 7.003179887416792514e+36
9.884678747940692119e+03 7.004953873010606581e+36
9.882399446585630358e+03 7.006310637544385660e+36
9.880121196153340861e+03 7.007143481301327747e+36
9.877843995917157372e+03 7.007713133651358634e+36
9.875567845151095753e+03 7.008759517974037057e+36
9.873292743129835799e+03 7.010885257875237646e+36
9.871018689128717597e+03 7.013148591002204470e+36
9.868745682423765174e+03 7.015233510537211417e+36
9.866473722291653758e+03 7.017625026534544678e+36
9.864202808009733417e+03 7.020318850183962839e+36
9.861932938856016335e+03 7.023351602926324312e+36
9.859664114109178627e+03 7.026327384466768049e+36
9.857396333048563974e+03 7.029328860861648735e+36
9.855129594954172717e+03 7.031903442564392445e+36
9.852863899106672761e+03 7.034115246245039047e+36
9.850599244787390489e+03 7.036536286696797682e+36
9.848335631278314395e+03 7.038891019565859493e+36
9.846073057862089627e+03 7.041007896534531501e+36
9.843811523822023446e+03 7.042910987768139729e+36
9.841551028442083407e+03 7.044916994444441864e+36
9.839291571006888262e+03 7.047524333303073006e+36
9.837033150801717056e+03 7.049894841691291793e+36
9.834775767112510948e+03 7.051504053093709386e+36
9.832519419225853198e+03 7.052701393345087490e+36
9.830264106428990999e+03 7.054189179197142021e+36
9.828009828009828198e+03 7.056153370286925575e+36
9.825756583256910744e+03 7.058280706419267329e+36
9.823504371459444883e+03 7.060633418562501947e+36
9.821253191907286237e+03 7.063498285729696641e+36
9.819003043890945264e+03 7.066039467729756169e+36
9.816753926701569071e+03 7.067837061732736399e+36
9.814505839630974151e+03 7.069960755308024143e+36
9.812258781971610006e+03 7.072034652612688972e+36
9.810012753016577335e+03 7.074259391612644600e+36
9.807767752059631675e+03 7.076429969177558402e+36
9.805523778395163390e+03 7.078558698249519358e+36
9.803280831318212222e+03 7.080264985848516484e+36
9.801038910124472750e+03 7.081685091086343634e+36
9.798798014110270742e+03 7.083083450898356232e+36
9.796558142572575889e+03 7.085295960564269332e+36
9.794319294809010898e+03 7.087395731621341362e+36
9.792081470117831486e+03 7.089108194552910800e+36
9.789844667797937291e+03 7.090840127089957165e+36
9.787608887148870053e+03 7.093066020086107590e+36
9.785374127470808162e+03 7.095296052439299989e+36
9.783140388064568469e+03 7.097791862623152630e+36
9.780907668231611751e+03 7.100417262543083206e+36
9.778675967274031791e+03 7.102799234287771744e+36
9.776445284494557200e+03 7.104898752604801379e+36
9.774215619196560510e+03 7.107214480055001860e+36
9.771986970684039989e+03 7.109891447029115615e+36
9.769759338261632365e+03 7.112977153716473437e+36
9.767532721234616474e+03 7.116080926224983321e+36
9.765307118908889606e+03 7.119357368494877458e+36
9.763082530590991155e+03 7.122830828450793078e+36
9.760858955588091703e+03 7.126258023015952611e+36
9.758636393207989386e+03 7.129541544666736757e+36
9.756414842759113526e+03 7.132970958907698860e+36
9.754194303550526456e+03 7.135750222974462762e+36
9.751974774891916240e+03 7.137955024182736563e+36
9.749756256093596676e+03 7.140238748820355940e+36
9.747538746466518205e+03 7.142562177107594867e+36
9.745322245322246090e+03 7.144976293861875134e+36
9.743106751972978600e+03 7.146451898394754955e+36
9.740892265731541556e+03 7.144494851691522853e+36
9.738678785911377418e+03 7.142093229546627388e+36
9.736466311826559831e+03 7.139346169936002322e+36
9.734254842791784540e+03 7.139501814454050118e+36
9.732044378122365742e+03 7.140761531908036773e+36
9.729834917134237912e+03 7.142197444770598478e+36
9.727626459143968532e+03 7.143410803642914507e+36
9.725419003468732626e+03 7.145445660660371864e+36
9.723212549426329133e+03 7.147766170595396733e+36
9.721007096335180904e+03 7.149895906405470727e+36
9.718802643514320152e+03 7.152433389487518676e+36
9.716599190283399366e+03 7.154338827372057595e+36
9.714396735962696766e+03 7.156296016511975769e+36
9.712195279873094478e+03 7.158649858643140730e+36
9.709994821336094901e+03 7.161151825403922172e+36
9.707795359673818893e+03 7.164138375096823928e+36
9.705596894208994854e+03 7.167798821693772119e+36
9.703399424264966001e+03 7.170627523340220188e+36
9.701202949165697646e+03 7.173480216592542472e+36
9.699007468235751730e+03 7.176213803545600920e+36
9.696812980800310470e+03 7.178585527551879592e+36
9.694619486185167261e+03 7.180975310122805109e+36
9.692426983716724862e+03 7.183682945714733799e+36
9.690235472721986298e+03 7.186726960739894215e+36
9.688044952528580325e+03 7.189960146238373768e+36
9.685855422464728690e+03 7.193469067468429156e+36
9.683666881859262503e+03 7.196217687023796965e+36
9.681479330041629510e+03 7.198314776749743256e+36
9.679292766341874085e+03 7.200293952131486341e+36
9.677107190090642689e+03 7.203538504173122460e+36
9.674922600619194782e+03 7.206275076980471699e+36
9.672738997259391908e+03 7.209016740814972807e+36
9.670556379343692242e+03 7.211748854454667182e+36
9.668374746205161500e+03 7.215233295416927538e+36
9.666194097177471122e+03 7.218751840093570716e+36
9.664014431594883717e+03 7.221876271512960895e+36
9.661835748792271261e+03 7.224357337300409024e+36
9.659658048105096896e+03 7.226015764929482419e+36
9.657481328869431309e+03 7.227991928793334413e+36
9.655305590421936358e+03 7.230157301459355803e+36
9.653130832099877807e+03 7.230979322380394380e+36
9.650957053241112590e+03 7.228165115669342624e+36
9.648784253184099725e+03 7.226925886833160336e+36
9.646612431267887587e+03 7.224972919647832703e+36
9.644441586832122994e+03 7.229364003333896624e+36
9.642271719217049395e+03 7.232771680131294479e+36
9.640102827763495952e+03 7.236460857535890573e+36
9.637934911812893915e+03 7.240026863752912215e+36
9.635767970707265704e+03 7.243708360539291405e+36
9.633602003789217633e+03 7.246851256981554306e+36
9.631437010401950829e+03 7.249743654439073113e+36
9.629272989889263044e+03 7.253155297306826187e+36
9.627109941595532291e+03 7.256189106683547517e+36
9.624947864865731390e+03 7.259317827640732864e+36
9.622786759045420695e+03 7.262237121819047303e+36
9.620626623480744456e+03 7.265013948132610820e+36
9.618467457518434458e+03 7.267391714847272432e+36
9.616309260505819111e+03 7.269753036015253534e+36
9.614152031790797992e+03 7.269404827486432930e+36
9.611995770721860026e+03 7.269274730362431783e+36
9.609840476648087133e+03 7.269445934603389677e+36
9.607686148919137850e+03 7.271081577675271337e+36
9.605532786885245514e+03 7.273114890849007810e+36
9.603380389897243731e+03 7.276399288530850021e+36
9.601228957306537268e+03 7.279349011679185695e+36
9.599078488465107512e+03 7.281991352813966905e+36
9.596928982725527021e+03 7.283837352416653625e+36
9.594780439440944974e+03 7.284654610995955583e+36
9.592632857965083531e+03 7.285807438560237844e+36
9.590486237652250566e+03 7.287307307203580690e+36
9.588340577857325115e+03 7.290086113958043747e+36
9.586195877935771932e+03 7.293422229844637028e+36
9.584052137243626930e+03 7.296954646205359423e+36
9.581909355137500825e+03 7.300550337434451146e+36
9.579767530974582769e+03 7.304159987107662813e+36
9.577626664112633080e+03 7.307369846330903549e+36
9.575486753909990512e+03 7.310408766793100401e+36
9.573347799725563164e+03 7.313432984566051965e+36
9.571209800918835754e+03 7.316916170589217632e+36
9.569072756849862344e+03 7.320385971338664310e+36
9.566936666879264521e+03 7.324055409641345658e+36
9.564801530368245949e+03 7.327166672805843089e+36
9.562667346678568720e+03 7.330144067183712369e+36
9.560534115172567908e+03 7.333079918093217088e+36
9.558401835213153390e+03 7.336223320148613915e+36
9.556270506163793470e+03 7.338863368166343070e+36
9.554140127388534893e+03 7.341491100899017714e+36
9.552010698251982831e+03 7.343928880466561587e+36
9.549882218119309982e+03 7.346318692546838636e+36
9.547754686356256570e+03 7.348500401670966946e+36
9.545628102329132162e+03 7.348693700381862124e+36
9.543502465404802933e+03 7.345938286254290653e+36
9.541377774950702587e+03 7.341800580570488273e+36
9.539254030334828713e+03 7.338944871399206424e+36
9.537131230925739146e+03 7.337439855519994970e+36
9.535009376092551975e+03 7.337086962006462894e+36
9.532888465204956447e+03 7.337567367205481478e+36
9.530768497633192965e+03 7.339243016974370434e+36
9.528649472748062180e+03 7.341887946491852820e+36
9.526531389920930451e+03 7.344550703752160264e+36
9.524414248523715287e+03 7.347133728402907569e+36
9.522298047928899905e+03 7.350094754412931250e+36
9.520182787509520494e+03 7.352607489473842654e+36
9.518068466639169856e+03 7.354756312086337270e+36
9.515955084691999218e+03 7.356904128408449956e+36
9.513842641042716423e+03 7.359564054961240328e+36
9.511731135066582283e+03 7.362168217420168576e+36
9.509620566139410585e+03 7.364523386690341109e+36
9.507510933637573544e+03 7.367924306805899665e+36
9.505402236937994530e+03 7.371800720048801806e+36
9.503294475418144430e+03 7.374997076440732290e+36
9.501187648456058014e+03 7.377959938301072114e+36
9.499081755430310295e+03 7.380845312973308150e+36
9.496976795720029259e+03 7.384386818028301476e+36
9.494872768704899499e+03 7.387475929562114620e+36
9.492769673765149491e+03 7.390783937978668897e+36
9.490667510281555224e+03 7.393865785617306600e+36
9.488566277635449296e+03 7.396462585910749770e+36
9.486465975208702730e+03 7.399400925630054430e+36
9.484366602383737700e+03 7.402624929498187478e+36
9.482268158543523896e+03 7.406319542612498200e+36
9.480170643071576706e+03 7.410017831148220912e+36
9.478074055351951756e+03 7.413372162684514733e+36
9.475978394769259467e+03 7.416988634050210417e+36
9.473883660708646858e+03 7.421013978771772179e+36
9.471789852555803009e+03 7.425164569244195093e+36
9.469696969696969973e+03 7.428679336395066255e+36
9.467605011518920946e+03 7.431750059674104318e+36
9.465513977408973005e+03 7.435363581038307026e+36
9.463423866754992559e+03 7.439687234323170919e+36
9.461334678945377163e+03 7.444546645044064932e+36
9.459246413369068250e+03 7.449104666026225020e+36
9.457159069415547492e+03 7.453667478030960032e+36
9.455072646474834983e+03 7.458269033565418862e+36
9.452987143937483779e+03 7.462927571097775714e+36
9.450902561194594455e+03 7.467752738542767624e+36
9.448818897637795089e+03 7.471800593618435217e+36
9.446736152659255822e+03 7.475278540797785676e+36
9.444654325651681575e+03 7.479091751932618073e+36
9.442573416008310232e+03 7.483350715156717954e+36
9.440493423122914464e+03 7.481701285732740011e+36
9.438414346389807179e+03 7.477139457275830028e+36
9.436336185203825153e+03 7.470991889692456354e+36
9.434258938960343585e+03 7.466745759056249581e+36
9.432182607055272456e+03 7.467971465548746033e+36
9.430107188885047435e+03 7.471955846914220557e+36
9.428032683846637156e+03 7.476115489387272082e+36
9.425959091337543214e+03 7.476836413329694205e+36
9.423886410755796533e+03 7.476552645164176981e+36
9.421814641499951904e+03 7.471983993741127684e+36
9.419743782969102540e+03 7.471874413033931021e+36
9.417673834562863703e+03 7.476167334589858772e+36
9.415604795681376345e+03 7.481843719639952335e+36
9.413536665725312560e+03 7.485130748418136459e+36
9.411469444095871950e+03 7.488727385208463546e+36
9.409403130194774349e+03 7.492032012561169854e+36
9.407337723424270735e+03 7.492008689410733925e+36
9.405273223187134136e+03 7.494437243046586083e+36
9.403209628886659630e+03 7.494345019210275796e+36
9.401146939926671621e+03 7.488564148503790842e+36
9.399085155711511106e+03 7.473615852995476166e+36
9.397024275646044771e+03 7.457068189157761334e+36
9.394964299135663168e+03 7.444327977853287531e+36
9.392905225586275265e+03 7.445830419134675997e+36
9.390847054404306618e+03 7.453900337166340021e+36
9.388789784996713934e+03 7.459768596994860834e+36
9.386733416770965050e+03 7.465549055494646944e+36
9.384677949135044400e+03 7.471741933134816411e+36
9.382623381497467562e+03 7.475310078787647338e+36
9.380569713267253974e+03 7.478838163316777003e+36
9.378516943853945122e+03 7.482718285992645340e+36
9.376465072667604545e+03 7.484979104302132035e+36
9.374414099118805098e+03 7.486665805930864631e+36
9.372364022618638046e+03 7.489980100062832055e+36
9.370314842578711250e+03 7.493542752799184253e+36
9.368266558411141887e+03 7.496962607651038475e+36
9.366219169528567363e+03 7.500953812291334521e+36
9.364172675344132585e+03 7.503652325730258364e+36
9.362127075271502690e+03 7.507081648788331714e+36
9.360082368724844855e+03 7.510659516210047421e+36
9.358038555118846489e+03 7.513889910943586056e+36
9.355995633868704317e+03 7.516576833923785922e+36
9.353953604390122564e+03 7.519431012408274296e+36
9.351912466099316589e+03 7.522176139033194015e+36
9.349872218413016526e+03 7.524036466620492597e+36
9.347832860748449093e+03 7.525861599184235561e+36
9.345794392523364877e+03 7.527470209409704075e+36
9.343756813156009230e+03 7.529536386171872656e+36
9.341720122065142277e+03 7.532174899472691195e+36
9.339684318670028006e+03 7.533528728178324438e+36
9.337649402390439718e+03 7.534787769701352497e+36
9.335615372646647302e+03 7.535722310407957793e+36
9.333582228859437237e+03 7.536216381967450929e+36
9.331549970450092587e+03 7.538934179766427057e+36
9.329518596840402097e+03 7.541970875911111695e+36
9.327488107452663826e+03 7.544618206061276188e+36
9.325458501709668781e+03 7.546596010394164840e+36
9.323429779034713647e+03 7.548699884439547143e+36
9.321401938851602608e+03 7.550452543748366565e+36
9.319374980584636432e+03 7.550958459177466569e+36
9.317348903658610652e+03 7.551805991388179350e+36
9.315323707498835574e+03 7.550937727654492259e+36
9.313299391531107176e+03 7.550747389295439506e+36
9.311275955181725294e+03 7.552186590746654143e+36
9.309253397877489988e+03 7.554203830846278054e+36
9.307231719045699720e+03 7.557018871434896544e+36
9.305210918114144079e+03 7.559468308670394194e+36
9.303190994511116514e+03 7.562298202030123632e+36
9.301171947665405241e+03 7.565288135967455658e+36
9.299153777006291421e+03 7.568105299531072734e+36
9.297136481963554616e+03 7.571578472585173274e+36
9.295120061967467336e+03 7.574937095072812945e+36
9.293104516448793220e+03 7.578643980124070978e+36
9.291089844838799763e+03 7.581905368354193304e+36
9.289076046569234677e+03 7.584958924896417723e+36
9.287063121072345893e+03 7.588034612647567091e+36
9.285051067780872472e+03 7.591542880916775096e+36
9.283039886128044600e+03 7.595435408651380594e+36
9.281029575547579952e+03 7.600109168524306129e+36
9.279020135473694609e+03 7.604799004513629662e+36
9.277011565341084861e+03 7.609801515508339364e+36
9.275003864584943585e+03 7.614709673129595215e+36
9.272997032640949328e+03 7.619709162229967398e+36
9.270991068945271763e+03 7.624453634516587293e+36
9.268985972934560778e+03 7.630106061223846871e+36
9.266981744045964660e+03 7.636575736928012554e+36
9.264978381717110096e+03 7.642763659658861664e+36
9.262975885386111258e+03 7.649632088950904723e+36
9.260974254491571628e+03 7.656059102668944440e+36
9.258973488472578538e+03 7.662326050823128002e+36
9.256973586768697714e+03 7.667914779871291915e+36
9.254974548819991469e+03 7.673685173259856985e+36
9.252976374066993230e+03 7.679070337057206359e+36
9.250979061950722098e+03 7.684544311486603574e+36
9.248982611912690118e+03 7.690374195788712614e+36
9.246987023394876815e+03 7.692457172574631306e+36
9.244992295839752842e+03 7.691697336370307399e+36
9.242998428690267247e+03 7.690219841854700000e+36
9.241005421389847470e+03 7.687626305681954806e+36
9.239013273382401167e+03 7.692193285209937223e+36
9.237021984112321661e+03 7.695578101284534661e+36
9.235031553024473396e+03 7.700119131293829228e+36
9.233041979564199210e+03 7.703638778039685919e+36
9.231053263177327608e+03 7.704185327147214333e+36
9.229065403310158217e+03 7.702035282025775576e+36
9.227078399409465419e+03 7.698477146087210763e+36
9.225092250922509265e+03 7.699392773720479384e+36
9.223106957297015470e+03 7.700324504010780666e+36
9.221122517981188139e+03 7.696262798078466906e+36
9.219138932423711594e+03 7.687870588463414166e+36
9.217156200073737637e+03 7.677154341399497000e+36
9.215174320380892823e+03 7.673207636129509017e+36
9.213193292795283924e+03 7.671712776786047308e+36
9.211213116767479733e+03 7.672550811036260349e+36
9.209233791748525618e+03 7.672426688292398019e+36
9.207255317189945345e+03 7.666868723452925715e+36
9.205277692543724697e+03 7.656190212312067518e+36
9.203300917262324219e+03 7.639292915397298260e+36
9.201324990798675572e+03 7.624240383523859651e+36
9.199349912606176076e+03 7.619320336627230694e+36
9.197375682138695993e+03 7.618547102129361314e+36
9.195402298850574880e+03 7.614109332946202876e+36
9.193429762196616139e+03 7.611195150476026870e+36
9.191458071632096107e+03 7.613703985110874908e+36
9.189487226612754966e+03 7.615432974759280305e+36
9.187517226594800377e+03 7.618393816545492497e+36
9.185548071034903842e+03 7.625959521952301234e+36
9.183579759390209801e+03 7.628683702301701787e+36
9.181612291118321082e+03 7.632575105497473126e+36
9.179645665677304351e+03 7.633773885064679441e+36
9.177679882525697394e+03 7.634086150010764934e+36
9.175714941122496384e+03 7.634957161474814279e+36
9.173750840927159516e+03 7.639923572004629290e+36
9.171787581399614282e+03 7.643165107079817666e+36
9.169825162000244745e+03 7.652231309905371347e+36
9.167863582189896988e+03 7.654790692888961651e+36
9.165902841429880937e+03 7.660510157737380987e+36
9.163942939181966722e+03 7.663346096806835885e+36
9.161983874908379221e+03 7.667035119266056565e+36
9.160025648071814430e+03 7.669257285655438940e+36
9.158068258135417636e+03 7.675120722209406806e+36
9.156111704562794330e+03 7.679132567362555006e+36
9.154155986818015663e+03 7.685019478829110930e+36
9.152201104365600258e+03 7.692421534883658540e+36
9.150247056670528764e+03 7.695231446165376887e+36
