# wavelength(A) luminosity(erg/s/A)
1.000000000000000000e+04 5.901752895424746964e+36
9.997667210984103804e+03 5.903490912633828468e+36
9.995335510095288555e+03 5.905342369922477683e+36
9.993004896572398138e+03 5.905538262064284989e+36
9.990675369654989481e+03 5.902301499726860952e+36
9.988346928583318004e+03 5.900436335613406829e+36
9.986019572598363084e+03 5.901528187113760973e+36
9.983693300941797133e+03 5.904874197621250841e+36
9.981368112856000153e+03 5.906737026772238142e+36
9.979044007584074279e+03 5.908719735067040513e+36
9.976720984369805592e+03 5.910258731171983799e+36
9.974399042457691394e+03 5.911589855244524149e+36
9.972078181092938394e+03 5.913508665785984758e+36
9.969758399521451793e+03 5.915155065959548869e+36
9.967439696989833465e+03 5.916885256500533825e+36
9.965122072745391051e+03 5.918701541790764830e+36
9.962805526036134324e+03 5.920424240495211939e+36
9.960490056110758815e+03 5.922062404060036549e+36
9.958175662218682191e+03 5.923544386632585915e+36
9.955862343609996969e+03 5.925310166226221913e+36
9.953550099535501431e+03 5.927163693189961905e+36
9.951238929246690532e+03 5.928943898281097862e+36
9.948928831995755900e+03 5.930605794954498902e+36
9.946619807035574922e+03 5.932119619856000677e+36
9.944311853619728936e+03 5.933907930921339003e+36
9.942004971002486855e+03 5.936077442555493055e+36
9.939699158438805171e+03 5.937763111061795365e+36
9.937394415184338868e+03 5.939297645147381256e+36
9.935090740495432328e+03 5.941064071852734427e+36
9.932788133629108415e+03 5.942880517329308171e+36
9.930486593843097580e+03 5.944751700596637626e+36
9.928186120395803300e+03 5.946635421193913247e+36
9.925886712546320268e+03 5.947843966270654715e+36
9.923588369554430756e+03 5.949422199672984996e+36
9.921291090680602792e+03 5.951291891838248004e+36
9.918994875185979254e+03 5.953265006540608261e+36
9.916699722332408783e+03 5.955476754424147851e+36
9.914405631382398496e+03 5.957506859858771214e+36
9.912112601599152185e+03 5.959453310844533185e+36
9.909820632246555761e+03 5.961194692055528943e+36
9.907529722589168159e+03 5.963086056095962220e+36
9.905239871892230440e+03 5.965096994461902332e+36
9.902951079421667600e+03 5.966904681290226266e+36
9.900663344444077666e+03 5.968522590922658267e+36
9.898376666226738962e+03 5.970300449444554571e+36
9.896091044037604661e+03 5.972412673139446879e+36
9.893806477145308236e+03 5.974865165654047177e+36
9.891522964819148910e+03 5.977461174555878989e+36
9.889240506329115306e+03 5.979671673127356481e+36
9.886959100945854516e+03 5.981506994875409189e+36
9.884678747940692119e+03 5.983027389509550100e+36
9.882399446585630358e+03 5.984390518503342777e+36
9.880121196153340861e+03 5.985500787093567590e+36
9.877843995917157372e+03 5.986748702978072912e+36
9.875567845151095753e+03 5.988518344338474421e+36
9.873292743129835799e+03 5.990874667076443180e+36
9.871018689128717597e+03 5.993399651055717950e+36
9.868745682423765174e+03 5.996162037943972634e+36
9.866473722291653758e+03 5.998851104684988281e+36
9.864202808009733417e+03 6.001521780165136807e+36
9.861932938856016335e+03 6.004263393873616091e+36
9.859664114109178627e+03 6.006549981865042261e+36
9.857396333048563974e+03 6.008575460043873858e+36
9.855129594954172717e+03 6.010598458297231706e+36
9.852863899106672761e+03 6.012570826549473288e+36
9.850599244787390489e+03 6.014469133158291964e+36
9.848335631278314395e+03 6.016146273135488746e+36
9.846073057862089627e+03 6.017776740954405088e+36
9.843811523822023446e+03 6.019308354189543520e+36
9.841551028442083407e+03 6.021004165773529939e+36
9.839291571006888262e+03 6.022625108419823241e+36
9.837033150801717056e+03 6.024015181932244126e+36
9.834775767112510948e+03 6.025300239676756170e+36
9.832519419225853198e+03 6.026723039636563615e+36
9.830264106428990999e+03 6.028573136393805243e+36
9.828009828009828198e+03 6.030283931325431373e+36
9.825756583256910744e+03 6.032201064316786516e+36
9.823504371459444883e+03 6.034144097259594685e+36
9.821253191907286237e+03 6.036178075798843594e+36
9.819003043890945264e+03 6.038160946098359529e+36
9.816753926701569071e+03 6.040054527117981263e+36
9.814505839630974151e+03 6.041888130758961847e+36
9.812258781971610006e+03 6.043781110755645039e+36
9.810012753016577335e+03 6.045668699506445999e+36
9.807767752059631675e+03 6.047748401524704246e+36
9.805523778395163390e+03 6.049577929544948718e+36
9.803280831318212222e+03 6.051227142277528062e+36
9.801038910124472750e+03 6.052837316320572142e+36
9.798798014110270742e+03 6.054646401144666888e+36
9.796558142572575889e+03 6.056559069140524206e+36
9.794319294809010898e+03 6.058649738503280814e+36
9.792081470117831486e+03 6.060585034390452312e+36
9.789844667797937291e+03 6.062063839244100986e+36
9.787608887148870053e+03 6.063457166621845451e+36
9.785374127470808162e+03 6.065203486636327615e+36
9.783140388064568469e+03 6.067076602744560493e+36
9.780907668231611751e+03 6.068851840494878553e+36
9.778675967274031791e+03 6.070555190537350794e+36
9.776445284494557200e+03 6.071986580484030161e+36
9.774215619196560510e+03 6.073377409835673211e+36
9.771986970684039989e+03 6.075199332154445404e+36
9.769759338261632365e+03 6.077377690498860598e+36
9.767532721234616474e+03 6.079804198186275192e+36
9.765307118908889606e+03 6.082257220984194994e+36
9.763082530590991155e+03 6.084974502016066113e+36
9.760858955588091703e+03 6.087771160416682977e+36
9.758636393207989386e+03 6.090368989295755341e+36
9.756414842759113526e+03 6.092874023335663790e+36
9.754194303550526456e+03 6.095345037157616834e+36
9.751974774891916240e+03 6.097592457374358982e+36
9.749756256093596676e+03 6.099646065390241470e+36
9.747538746466518205e+03 6.101428478838292071e+36
9.745322245322246090e+03 6.102883569190856562e+36
9.743106751972978600e+03 6.102954859862942864e+36
9.740892265731541556e+03 6.101516909625800165e+36
9.738678785911377418e+03 6.099732564135021705e+36
9.736466311826559831e+03 6.100245271020827906e+36
9.734254842791784540e+03 6.102053643762036200e+36
9.732044378122365742e+03 6.103718475778307974e+36
9.729834917134237912e+03 6.105958838189507400e+36
9.727626459143968532e+03 6.107959694002017113e+36
9.725419003468732626e+03 6.109586409629603351e+36
9.723212549426329133e+03 6.111936519957504641e+36
9.721007096335180904e+03 6.114006832123780410e+36
9.718802643514320152e+03 6.115708308145598383e+36
9.716599190283399366e+03 6.117291970039892177e+36
9.714396735962696766e+03 6.118918126890521114e+36
9.712195279873094478e+03 6.120833089169934107e+36
9.709994821336094901e+03 6.122593607616077028e+36
9.707795359673818893e+03 6.124597337266380053e+36
9.705596894208994854e+03 6.126659539833960439e+36
9.703399424264966001e+03 6.128905080691917123e+36
9.701202949165697646e+03 6.131180967785986961e+36
9.699007468235751730e+03 6.132881165634220885e+36
9.696812980800310470e+03 6.134996425144230345e+36
9.694619486185167261e+03 6.137263039223862597e+36
9.692426983716724862e+03 6.139167095371582666e+36
9.690235472721986298e+03 6.141072805602545356e+36
9.688044952528580325e+03 6.143188335393095545e+36
9.685855422464728690e+03 6.145084001312548773e+36
9.683666881859262503e+03 6.146516037307667901e+36
9.681479330041629510e+03 6.147916498381167161e+36
9.679292766341874085e+03 6.150014014114289643e+36
9.677107190090642689e+03 6.152342547176326311e+36
9.674922600619194782e+03 6.154426754798192271e+36
9.672738997259391908e+03 6.156493478798212109e+36
9.670556379343692242e+03 6.158576928716151579e+36
9.668374746205161500e+03 6.160470531919308276e+36
9.666194097177471122e+03 6.162449676075133779e+36
9.664014431594883717e+03 6.164920687233714628e+36
9.661835748792271261e+03 6.166809953176495669e+36
9.659658048105096896e+03 6.168553014411694280e+36
9.657481328869431309e+03 6.170116929864375361e+36
9.655305590421936358e+03 6.171752964552319980e+36
9.653130832099877807e+03 6.171382877643711351e+36
9.650957053241112590e+03 6.170055546488332505e+36
9.648784253184099725e+03 6.169506053053766891e+36
9.646612431267887587e+03 6.170667906889880470e+36
9.644441586832122994e+03 6.173408252799925843e+36
9.642271719217049395e+03 6.175550424838894057e+36
9.640102827763495952e+03 6.177950005507607745e+36
9.637934911812893915e+03 6.180511074566060461e+36
9.635767970707265704e+03 6.182418964390819335e+36
9.633602003789217633e+03 6.184842962510867169e+36
9.631437010401950829e+03 6.187277147168753902e+36
9.629272989889263044e+03 6.189644130923210002e+36
9.627109941595532291e+03 6.191753699175549230e+36
9.624947864865731390e+03 6.193342371273722054e+36
9.622786759045420695e+03 6.194676900732094620e+36
9.620626623480744456e+03 6.196059614396562474e+36
9.618467457518434458e+03 6.197793318952978174e+36
9.616309260505819111e+03 6.198899501681159228e+36
9.614152031790797992e+03 6.198904897430618343e+36
9.611995770721860026e+03 6.199306152791309714e+36
9.609840476648087133e+03 6.201437990212533275e+36
9.607686148919137850e+03 6.204223790577382094e+36
9.605532786885245514e+03 6.206477787270862315e+36
9.603380389897243731e+03 6.209048168342495355e+36
9.601228957306537268e+03 6.211076785742169091e+36
9.599078488465107512e+03 6.212845228084979500e+36
9.596928982725527021e+03 6.214204072531434598e+36
9.594780439440944974e+03 6.215391760808156342e+36
9.592632857965083531e+03 6.216926595692867964e+36
9.590486237652250566e+03 6.218832163040713306e+36
9.588340577857325115e+03 6.220780335530601800e+36
9.586195877935771932e+03 6.222688540608178012e+36
9.584052137243626930e+03 6.224631852805876758e+36
9.581909355137500825e+03 6.226458690303093303e+36
9.579767530974582769e+03 6.227922153032492708e+36
9.577626664112633080e+03 6.229544030592121514e+36
9.575486753909990512e+03 6.231581029594801383e+36
9.573347799725563164e+03 6.233878936729175982e+36
9.571209800918835754e+03 6.236222844023817430e+36
9.569072756849862344e+03 6.238646947934020524e+36
9.566936666879264521e+03 6.240615974851496823e+36
9.564801530368245949e+03 6.242393028054951606e+36
9.562667346678568720e+03 6.244456659981764032e+36
9.560534115172567908e+03 6.246803117878808850e+36
9.558401835213153390e+03 6.249209914385932145e+36
9.556270506163793470e+03 6.251199932252627875e+36
9.554140127388534893e+03 6.252361683333878988e+36
9.552010698251982831e+03 6.253424504284020523e+36
9.549882218119309982e+03 6.255084164856399589e+36
9.547754686356256570e+03 6.256596512270359639e+36
9.545628102329132162e+03 6.256760684569742759e+36
9.543502465404802933e+03 6.255419245671860229e+36
9.541377774950702587e+03 6.254350828661138802e+36
9.539254030334828713e+03 6.255066414828481860e+36
9.537131230925739146e+03 6.256700799225659714e+36
9.535009376092551975e+03 6.258090906156160843e+36
9.532888465204956447e+03 6.259703299466064723e+36
9.530768497633192965e+03 6.261002718212023559e+36
9.528649472748062180e+03 6.262828790112042141e+36
9.526531389920930451e+03 6.265296503165261144e+36
9.524414248523715287e+03 6.267096092559215809e+36
9.522298047928899905e+03 6.268822830794851276e+36
9.520182787509520494e+03 6.270116305879021843e+36
9.518068466639169856e+03 6.271737004987950195e+36
9.515955084691999218e+03 6.273927785003312317e+36
9.513842641042716423e+03 6.276548438429758747e+36
9.511731135066582283e+03 6.279119317913804631e+36
9.509620566139410585e+03 6.281502712082356261e+36
9.507510933637573544e+03 6.283858542595394040e+36
9.505402236937994530e+03 6.286113930286122738e+36
9.503294475418144430e+03 6.288485500303399656e+36
9.501187648456058014e+03 6.290376733977351490e+36
9.499081755430310295e+03 6.292132051344983498e+36
9.496976795720029259e+03 6.294381143021216790e+36
9.494872768704899499e+03 6.296636019190808791e+36
9.492769673765149491e+03 6.298681951233382241e+36
9.490667510281555224e+03 6.300502912135950213e+36
9.488566277635449296e+03 6.302186597208338357e+36
9.486465975208702730e+03 6.304366155536928068e+36
9.484366602383737700e+03 6.306545110679801502e+36
9.482268158543523896e+03 6.308701457044089550e+36
9.480170643071576706e+03 6.310734051335192267e+36
9.478074055351951756e+03 6.312965347769155633e+36
9.475978394769259467e+03 6.315476090573074590e+36
9.473883660708646858e+03 6.318234415133512919e+36
9.471789852555803009e+03 6.321208353664165760e+36
9.469696969696969973e+03 6.324174273396741128e+36
9.467605011518920946e+03 6.327000681260475906e+36
9.465513977408973005e+03 6.329816585672075984e+36
9.463423866754992559e+03 6.332928502219012426e+36
9.461334678945377163e+03 6.336359978783200164e+36
9.459246413369068250e+03 6.339978217636924328e+36
9.457159069415547492e+03 6.343934797116614674e+36
9.455072646474834983e+03 6.348137431057756126e+36
9.452987143937483779e+03 6.353209952681661809e+36
9.450902561194594455e+03 6.357153607194883627e+36
9.448818897637795089e+03 6.359794300753291894e+36
9.446736152659255822e+03 6.362222093224294337e+36
9.444654325651681575e+03 6.365040401926227632e+36
9.442573416008310232e+03 6.366447339718785795e+36
9.440493423122914464e+03 6.363064250242326883e+36
9.438414346389807179e+03 6.357111082918392661e+36
9.436336185203825153e+03 6.352941543371506907e+36
9.434258938960343585e+03 6.353077223549517145e+36
9.432182607055272456e+03 6.353745454436714345e+36
9.430107188885047435e+03 6.357181211322674397e+36
9.428032683846637156e+03 6.357703135096197075e+36
9.425959091337543214e+03 6.355603632231670253e+36
9.423886410755796533e+03 6.353211933451722098e+36
9.421814641499951904e+03 6.353863557594993224e+36
9.419743782969102540e+03 6.359129536458908490e+36
9.417673834562863703e+03 6.364287107192499362e+36
9.415604795681376345e+03 6.372411875248329035e+36
9.413536665725312560e+03 6.379519627660562530e+36
9.411469444095871950e+03 6.387406244403616364e+36
9.409403130194774349e+03 6.391789561522920014e+36
9.407337723424270735e+03 6.393389998953230512e+36
9.405273223187134136e+03 6.395184593881338584e+36
9.403209628886659630e+03 6.394066937732662493e+36
9.401146939926671621e+03 6.390206577625863355e+36
9.399085155711511106e+03 6.378399954335367463e+36
9.397024275646044771e+03 6.371107107931407658e+36
9.394964299135663168e+03 6.362355493738069247e+36
9.392905225586275265e+03 6.360503729970077238e+36
9.390847054404306618e+03 6.362253186448319887e+36
9.388789784996713934e+03 6.364944788422226960e+36
9.386733416770965050e+03 6.368554083080990871e+36
9.384677949135044400e+03 6.372203058822078619e+36
9.382623381497467562e+03 6.376265567137210194e+36
9.380569713267253974e+03 6.379908521245940507e+36
9.378516943853945122e+03 6.382696536196494735e+36
9.376465072667604545e+03 6.385637337062022524e+36
9.374414099118805098e+03 6.387507783516029637e+36
9.372364022618638046e+03 6.390156561222917837e+36
9.370314842578711250e+03 6.392216932305812736e+36
9.368266558411141887e+03 6.394373138598584811e+36
9.366219169528567363e+03 6.396068597381125940e+36
9.364172675344132585e+03 6.397082761807234264e+36
9.362127075271502690e+03 6.398481698367959629e+36
9.360082368724844855e+03 6.400011037781132524e+36
9.358038555118846489e+03 6.402593187841722031e+36
9.355995633868704317e+03 6.405071754455618692e+36
9.353953604390122564e+03 6.407097063459967212e+36
9.351912466099316589e+03 6.408353044013749146e+36
9.349872218413016526e+03 6.409390259596283312e+36
9.347832860748449093e+03 6.410713806418118356e+36
9.345794392523364877e+03 6.412637943466517834e+36
9.343756813156009230e+03 6.414996093481100822e+36
9.341720122065142277e+03 6.417444206411943457e+36
9.339684318670028006e+03 6.417814124563645447e+36
9.337649402390439718e+03 6.417147943011847333e+36
9.335615372646647302e+03 6.416315448004398353e+36
9.333582228859437237e+03 6.417151536145892314e+36
9.331549970450092587e+03 6.419306858046323539e+36
9.329518596840402097e+03 6.421498271451981445e+36
9.327488107452663826e+03 6.423527499860354049e+36
9.325458501709668781e+03 6.424909391313554611e+36
9.323429779034713647e+03 6.426673693948035649e+36
9.321401938851602608e+03 6.428432670263760581e+36
9.319374980584636432e+03 6.428161722781434255e+36
9.317348903658610652e+03 6.427504668622506821e+36
9.315323707498835574e+03 6.427961022902595939e+36
9.313299391531107176e+03 6.430559893278366702e+36
9.311275955181725294e+03 6.433104883394540787e+36
9.309253397877489988e+03 6.435048673169451035e+36
9.307231719045699720e+03 6.437140549011987813e+36
9.305210918114144079e+03 6.438812209991345085e+36
9.303190994511116514e+03 6.440866266254309615e+36
9.301171947665405241e+03 6.442616478093853231e+36
9.299153777006291421e+03 6.444646533566522769e+36
9.297136481963554616e+03 6.446460287299224694e+36
9.295120061967467336e+03 6.448786037667547215e+36
9.293104516448793220e+03 6.451199149134645018e+36
9.291089844838799763e+03 6.453379423982398437e+36
9.289076046569234677e+03 6.455611058379201298e+36
9.287063121072345893e+03 6.458220149586909075e+36
9.285051067780872472e+03 6.460903721187369578e+36
9.283039886128044600e+03 6.463839694916886597e+36
9.281029575547579952e+03 6.466616912669639197e+36
9.279020135473694609e+03 6.469614783034466506e+36
9.277011565341084861e+03 6.472773872248477496e+36
9.275003864584943585e+03 6.475952381879755987e+36
9.272997032640949328e+03 6.479431558082008536e+36
9.270991068945271763e+03 6.483034697382118571e+36
9.268985972934560778e+03 6.486744555679241672e+36
9.266981744045964660e+03 6.490655799973922418e+36
9.264978381717110096e+03 6.494162197611681982e+36
9.262975885386111258e+03 6.498077610817393223e+36
9.260974254491571628e+03 6.502063107538252756e+36
9.258973488472578538e+03 6.505904264595885123e+36
9.256973586768697714e+03 6.509457124007270577e+36
9.254974548819991469e+03 6.513028846576704124e+36
9.252976374066993230e+03 6.516709791970836396e+36
9.250979061950722098e+03 6.520547868218137288e+36
9.248982611912690118e+03 6.523826607310957034e+36
9.246987023394876815e+03 6.522932929931589714e+36
9.244992295839752842e+03 6.520429015929101386e+36
9.242998428690267247e+03 6.520002759371192544e+36
9.241005421389847470e+03 6.522417811080049923e+36
9.239013273382401167e+03 6.524975818626213883e+36
9.237021984112321661e+03 6.527067031427759375e+36
9.235031553024473396e+03 6.529423670989637841e+36
9.233041979564199210e+03 6.531675290528203927e+36
9.231053263177327608e+03 6.530300012617476723e+36
9.229065403310158217e+03 6.529104576793304467e+36
9.227078399409465419e+03 6.530593480735516022e+36
9.225092250922509265e+03 6.534460777039414748e+36
9.223106957297015470e+03 6.534080358930233146e+36
9.221122517981188139e+03 6.530890067856996171e+36
9.219138932423711594e+03 6.524687589833444500e+36
9.217156200073737637e+03 6.522984470012504528e+36
9.215174320380892823e+03 6.524106046170677019e+36
9.213193292795283924e+03 6.524888617373322330e+36
9.211213116767479733e+03 6.528169611010567048e+36
9.209233791748525618e+03 6.526178060458970206e+36
9.207255317189945345e+03 6.520237416424947416e+36
9.205277692543724697e+03 6.509486148367408742e+36
9.203300917262324219e+03 6.499849338788500643e+36
9.201324990798675572e+03 6.499468358249199240e+36
9.199349912606176076e+03 6.496766371336780019e+36
9.197375682138695993e+03 6.498223115981227184e+36
9.195402298850574880e+03 6.499005915631879892e+36
9.193429762196616139e+03 6.498125084936401639e+36
9.191458071632096107e+03 6.497568966209485602e+36
9.189487226612754966e+03 6.499989359355127306e+36
9.187517226594800377e+03 6.502510628734345256e+36
9.185548071034903842e+03 6.506050151452645018e+36
9.183579759390209801e+03 6.509576376015228981e+36
9.181612291118321082e+03 6.509830299216480121e+36
9.179645665677304351e+03 6.511672594078132655e+36
9.177679882525697394e+03 6.512541487854354373e+36
9.175714941122496384e+03 6.513943972338872716e+36
9.173750840927159516e+03 6.516151043030230063e+36
9.171787581399614282e+03 6.518708921475909379e+36
9.169825162000244745e+03 6.521541585625749884e+36
9.167863582189896988e+03 6.525383363333926842e+36
9.165902841429880937e+03 6.527957685036001495e+36
9.163942939181966722e+03 6.531610367190551879e+36
9.161983874908379221e+03 6.535253763572959048e+36
9.160025648071814430e+03 6.537313467895833772e+36
9.158068258135417636e+03 6.541559754041450688e+36
9.156111704562794330e+03 6.544724064862354700e+36
9.154155986818015663e+03 6.548733160149541310e+36
9.152201104365600258e+03 6.553518766653907921e+36
9.150247056670528764e+03 6.555479551425125766e+36
