# wavelength(A) luminosity(erg/s/A)
1.000000000000000000e+04 9.794357019530698006e+36
9.997667210984103804e+03 9.799689569282933241e+36
9.995335510095288555e+03 9.805283525798167181e+36
9.993004896572398138e+03 9.810912361551579244e+36
9.990675369654989481e+03 9.806525659044939370e+36
9.988346928583318004e+03 9.780911074376045490e+36
9.986019572598363084e+03 9.744865074772454521e+36
9.983693300941797133e+03 9.712144974970773173e+36
9.981368112856000153e+03 9.678250672735266781e+36
9.979044007584074279e+03 9.652275118460889296e+36
9.976720984369805592e+03 9.659978977138035778e+36
9.974399042457691394e+03 9.671137068090630676e+36
9.972078181092938394e+03 9.682639972667884159e+36
9.969758399521451793e+03 9.686312265390512025e+36
9.967439696989833465e+03 9.687502535449042953e+36
9.965122072745391051e+03 9.690593887251472744e+36
9.962805526036134324e+03 9.693567531980667441e+36
9.960490056110758815e+03 9.698819739829699743e+36
9.958175662218682191e+03 9.702071763403563168e+36
9.955862343609996969e+03 9.705018422594400598e+36
9.953550099535501431e+03 9.706147366114279890e+36
9.951238929246690532e+03 9.709223129605324864e+36
9.948928831995755900e+03 9.712371696285762760e+36
9.946619807035574922e+03 9.712934050001315448e+36
9.944311853619728936e+03 9.712875301564505161e+36
9.942004971002486855e+03 9.713902823045097227e+36
9.939699158438805171e+03 9.714445036239377042e+36
9.937394415184338868e+03 9.714531115806367144e+36
9.935090740495432328e+03 9.718428977891415144e+36
9.932788133629108415e+03 9.721861031251369309e+36
9.930486593843097580e+03 9.725680139236766008e+36
9.928186120395803300e+03 9.728437574773109772e+36
9.925886712546320268e+03 9.730846088747161260e+36
9.923588369554430756e+03 9.731718933739168443e+36
9.921291090680602792e+03 9.731307785433117433e+36
9.918994875185979254e+03 9.731435943134854871e+36
9.916699722332408783e+03 9.731738407119426517e+36
9.914405631382398496e+03 9.731220130056254378e+36
9.912112601599152185e+03 9.733333698053121823e+36
9.909820632246555761e+03 9.738229897430003788e+36
9.907529722589168159e+03 9.744049345978633990e+36
9.905239871892230440e+03 9.749297019952160683e+36
9.902951079421667600e+03 9.754057713957667123e+36
9.900663344444077666e+03 9.758200519119897115e+36
9.898376666226738962e+03 9.763259077561292201e+36
9.896091044037604661e+03 9.768036333093896817e+36
9.893806477145308236e+03 9.772459297428146307e+36
9.891522964819148910e+03 9.776942185777024193e+36
9.889240506329115306e+03 9.782359846335656852e+36
9.886959100945854516e+03 9.788711767645254628e+36
9.884678747940692119e+03 9.796061813244817216e+36
9.882399446585630358e+03 9.800689159623045246e+36
9.880121196153340861e+03 9.803332728242327938e+36
9.877843995917157372e+03 9.802470669790167424e+36
9.875567845151095753e+03 9.800799435125659145e+36
9.873292743129835799e+03 9.798893501117636054e+36
9.871018689128717597e+03 9.801798540792441345e+36
9.868745682423765174e+03 9.808345912487931014e+36
9.866473722291653758e+03 9.818890758502190530e+36
9.864202808009733417e+03 9.828921318223877750e+36
9.861932938856016335e+03 9.838277935232793944e+36
9.859664114109178627e+03 9.845457038712537751e+36
9.857396333048563974e+03 9.853105322317894413e+36
9.855129594954172717e+03 9.860368170321168193e+36
9.852863899106672761e+03 9.866007269469309092e+36
9.850599244787390489e+03 9.871488612183890763e+36
9.848335631278314395e+03 9.876799354920268025e+36
9.846073057862089627e+03 9.880898262428378977e+36
9.843811523822023446e+03 9.885406315030037223e+36
9.841551028442083407e+03 9.889896727019820292e+36
9.839291571006888262e+03 9.893827480083933875e+36
9.837033150801717056e+03 9.896230177195621306e+36
9.834775767112510948e+03 9.897437479047373222e+36
9.832519419225853198e+03 9.898385559592515114e+36
9.830264106428990999e+03 9.898170295428407861e+36
9.828009828009828198e+03 9.895167682716493557e+36
9.825756583256910744e+03 9.891215197935688588e+36
9.823504371459444883e+03 9.890059679169481550e+36
9.821253191907286237e+03 9.891341936639480438e+36
9.819003043890945264e+03 9.894836406959001970e+36
9.816753926701569071e+03 9.897781626979040965e+36
9.814505839630974151e+03 9.900852240262419117e+36
9.812258781971610006e+03 9.903571345568545457e+36
9.810012753016577335e+03 9.907863650509305294e+36
9.807767752059631675e+03 9.912736290602947231e+36
9.805523778395163390e+03 9.917720149599825900e+36
9.803280831318212222e+03 9.921150660421599897e+36
9.801038910124472750e+03 9.922663513634138843e+36
9.798798014110270742e+03 9.922024588997333043e+36
9.796558142572575889e+03 9.921974379006656929e+36
9.794319294809010898e+03 9.921108892080067630e+36
9.792081470117831486e+03 9.921287344644655557e+36
9.789844667797937291e+03 9.922782673437236440e+36
9.787608887148870053e+03 9.927420092320349499e+36
9.785374127470808162e+03 9.932230699619350657e+36
9.783140388064568469e+03 9.937834637777256712e+36
9.780907668231611751e+03 9.943412330238929741e+36
9.778675967274031791e+03 9.948675189967893334e+36
9.776445284494557200e+03 9.953113937880235432e+36
9.774215619196560510e+03 9.958716924704437630e+36
9.771986970684039989e+03 9.965550690485905125e+36
9.769759338261632365e+03 9.972271002595713792e+36
9.767532721234616474e+03 9.978806578275666653e+36
9.765307118908889606e+03 9.987435092692481618e+36
9.763082530590991155e+03 9.997643708062016878e+36
9.760858955588091703e+03 1.000629462968088405e+37
9.758636393207989386e+03 1.001292115435178787e+37
9.756414842759113526e+03 1.001881440050263252e+37
9.754194303550526456e+03 1.002402895073275826e+37
9.751974774891916240e+03 1.002912662760413816e+37
9.749756256093596676e+03 1.003537976748410180e+37
9.747538746466518205e+03 1.004041759626037239e+37
9.745322245322246090e+03 1.004539033550388192e+37
9.743106751972978600e+03 1.005052382007067593e+37
9.740892265731541556e+03 1.005259545872565990e+37
9.738678785911377418e+03 1.004919067749457142e+37
9.736466311826559831e+03 1.004374856424258587e+37
9.734254842791784540e+03 1.003655641460556705e+37
9.732044378122365742e+03 1.002814743927922405e+37
9.729834917134237912e+03 1.001891151125856667e+37
9.727626459143968532e+03 1.001884089837434194e+37
9.725419003468732626e+03 1.002176764263768844e+37
9.723212549426329133e+03 1.002614729673626301e+37
9.721007096335180904e+03 1.002985095963916325e+37
9.718802643514320152e+03 1.003408539689869901e+37
9.716599190283399366e+03 1.003899332903898435e+37
9.714396735962696766e+03 1.004382726496281298e+37
9.712195279873094478e+03 1.004846536523842189e+37
9.709994821336094901e+03 1.005304429717505124e+37
9.707795359673818893e+03 1.005944403606321936e+37
9.705596894208994854e+03 1.006582660879120547e+37
9.703399424264966001e+03 1.007150186634874860e+37
9.701202949165697646e+03 1.007719321213204278e+37
9.699007468235751730e+03 1.008241359495357363e+37
9.696812980800310470e+03 1.008769782983050484e+37
9.694619486185167261e+03 1.009330364110214412e+37
9.692426983716724862e+03 1.009894706125376766e+37
9.690235472721986298e+03 1.010356757694810582e+37
9.688044952528580325e+03 1.010874064958277452e+37
9.685855422464728690e+03 1.011366107493522039e+37
9.683666881859262503e+03 1.011750093570064882e+37
9.681479330041629510e+03 1.012099254417786439e+37
9.679292766341874085e+03 1.012439391467393676e+37
9.677107190090642689e+03 1.012705296360942380e+37
9.674922600619194782e+03 1.012839084159953553e+37
9.672738997259391908e+03 1.013227937202616384e+37
9.670556379343692242e+03 1.013824508170400229e+37
9.668374746205161500e+03 1.014379358914212678e+37
9.666194097177471122e+03 1.014844734380859143e+37
9.664014431594883717e+03 1.015242796368900055e+37
9.661835748792271261e+03 1.015598289356033645e+37
9.659658048105096896e+03 1.015941177244558840e+37
9.657481328869431309e+03 1.016385003321065206e+37
9.655305590421936358e+03 1.016831272598548475e+37
9.653130832099877807e+03 1.017292761752705595e+37
9.650957053241112590e+03 1.017460859129000514e+37
9.648784253184099725e+03 1.017309301115307029e+37
9.646612431267887587e+03 1.017135857286639414e+37
9.644441586832122994e+03 1.017029998037350283e+37
9.642271719217049395e+03 1.016841348659576167e+37
9.640102827763495952e+03 1.017077831638757923e+37
9.637934911812893915e+03 1.017825232767005695e+37
9.635767970707265704e+03 1.018700451077969615e+37
9.633602003789217633e+03 1.019556519856028612e+37
9.631437010401950829e+03 1.020384516374752624e+37
9.629272989889263044e+03 1.021124500556288035e+37
9.627109941595532291e+03 1.021812427459896496e+37
9.624947864865731390e+03 1.022373337300874689e+37
9.622786759045420695e+03 1.022900237137154032e+37
9.620626623480744456e+03 1.023482299047146633e+37
9.618467457518434458e+03 1.024085588262859848e+37
9.616309260505819111e+03 1.024666816314990379e+37
9.614152031790797992e+03 1.025224649677525382e+37
9.611995770721860026e+03 1.025685983783634932e+37
9.609840476648087133e+03 1.025996014991762848e+37
9.607686148919137850e+03 1.026338778970674444e+37
9.605532786885245514e+03 1.026650559587786748e+37
9.603380389897243731e+03 1.027115319336783279e+37
9.601228957306537268e+03 1.027843237213274322e+37
9.599078488465107512e+03 1.028764501432728376e+37
9.596928982725527021e+03 1.029838001241091330e+37
9.594780439440944974e+03 1.030772105414923965e+37
9.592632857965083531e+03 1.031656489836347422e+37
9.590486237652250566e+03 1.032536650832299655e+37
9.588340577857325115e+03 1.033480239733093552e+37
9.586195877935771932e+03 1.034414830778671184e+37
9.584052137243626930e+03 1.035453029551302381e+37
9.581909355137500825e+03 1.036614394518264834e+37
9.579767530974582769e+03 1.037861815758523368e+37
9.577626664112633080e+03 1.039067925167262088e+37
9.575486753909990512e+03 1.040339272866977358e+37
9.573347799725563164e+03 1.041697594183952621e+37
9.571209800918835754e+03 1.043165126231254325e+37
9.569072756849862344e+03 1.044773244189535888e+37
9.566936666879264521e+03 1.046381050500406856e+37
9.564801530368245949e+03 1.047989264994679451e+37
9.562667346678568720e+03 1.049405799554874988e+37
9.560534115172567908e+03 1.050610885146391591e+37
9.558401835213153390e+03 1.051544991244552441e+37
9.556270506163793470e+03 1.052190506181724236e+37
9.554140127388534893e+03 1.052708043298409132e+37
9.552010698251982831e+03 1.053229719396885426e+37
9.549882218119309982e+03 1.053808840661787687e+37
9.547754686356256570e+03 1.054380119082335977e+37
9.545628102329132162e+03 1.053997615972555019e+37
9.543502465404802933e+03 1.052273127190122024e+37
9.541377774950702587e+03 1.049292118131565972e+37
9.539254030334828713e+03 1.045301568558480237e+37
9.537131230925739146e+03 1.040479194566749702e+37
9.535009376092551975e+03 1.035131150502844487e+37
9.532888465204956447e+03 1.031189356900881681e+37
9.530768497633192965e+03 1.029369633422016172e+37
9.528649472748062180e+03 1.028650143726404918e+37
9.526531389920930451e+03 1.028440484435182822e+37
9.524414248523715287e+03 1.028306026808683782e+37
9.522298047928899905e+03 1.028246971953250298e+37
9.520182787509520494e+03 1.028184594403726906e+37
9.518068466639169856e+03 1.028212146042314695e+37
9.515955084691999218e+03 1.028189801649359083e+37
9.513842641042716423e+03 1.028721631910902682e+37
9.511731135066582283e+03 1.029747154720854854e+37
9.509620566139410585e+03 1.030697311078070407e+37
9.507510933637573544e+03 1.031845677429421992e+37
9.505402236937994530e+03 1.033542115353967087e+37
9.503294475418144430e+03 1.035229054307518926e+37
9.501187648456058014e+03 1.036742891677033941e+37
9.499081755430310295e+03 1.038155214725442288e+37
9.496976795720029259e+03 1.039632648054151741e+37
9.494872768704899499e+03 1.041008831482742667e+37
9.492769673765149491e+03 1.042496978585340158e+37
9.490667510281555224e+03 1.044235410377844584e+37
9.488566277635449296e+03 1.045632675763516972e+37
9.486465975208702730e+03 1.047198489447206083e+37
9.484366602383737700e+03 1.048775798204229781e+37
9.482268158543523896e+03 1.050186578367677942e+37
9.480170643071576706e+03 1.051522105568419846e+37
9.478074055351951756e+03 1.052853348254171436e+37
9.475978394769259467e+03 1.054514236564183698e+37
9.473883660708646858e+03 1.056069060124181427e+37
9.471789852555803009e+03 1.057498097108703229e+37
9.469696969696969973e+03 1.058910296402659238e+37
9.467605011518920946e+03 1.060278038758003159e+37
9.465513977408973005e+03 1.061749694474183296e+37
9.463423866754992559e+03 1.063373732137594760e+37
9.461334678945377163e+03 1.065283121700057484e+37
9.459246413369068250e+03 1.067077684854750736e+37
9.457159069415547492e+03 1.068313329478507709e+37
9.455072646474834983e+03 1.069320893611917948e+37
9.452987143937483779e+03 1.070042726199901374e+37
9.450902561194594455e+03 1.070427899022912768e+37
9.448818897637795089e+03 1.070407342085623560e+37
9.446736152659255822e+03 1.070814954038951916e+37
9.444654325651681575e+03 1.071775069603487615e+37
9.442573416008310232e+03 1.073159114805945173e+37
9.440493423122914464e+03 1.073922654204407122e+37
9.438414346389807179e+03 1.073427389068705318e+37
9.436336185203825153e+03 1.072067684432989387e+37
9.434258938960343585e+03 1.069774458114641192e+37
9.432182607055272456e+03 1.066970937848645135e+37
9.430107188885047435e+03 1.063843857509221476e+37
9.428032683846637156e+03 1.062732513248054992e+37
9.425959091337543214e+03 1.062816616315916545e+37
9.423886410755796533e+03 1.063020320083308013e+37
9.421814641499951904e+03 1.062723142146545032e+37
9.419743782969102540e+03 1.062585656126726564e+37
9.417673834562863703e+03 1.062247161498365289e+37
9.415604795681376345e+03 1.061943158146901215e+37
9.413536665725312560e+03 1.061972632458835511e+37
9.411469444095871950e+03 1.062723643182611664e+37
9.409403130194774349e+03 1.063719730415075002e+37
9.407337723424270735e+03 1.064186120823043863e+37
9.405273223187134136e+03 1.064144080674283381e+37
9.403209628886659630e+03 1.064071582140925193e+37
9.401146939926671621e+03 1.063399505176385005e+37
9.399085155711511106e+03 1.060693822497872567e+37
9.397024275646044771e+03 1.056447934467632145e+37
9.394964299135663168e+03 1.052097464701685633e+37
9.392905225586275265e+03 1.048003215105943131e+37
9.390847054404306618e+03 1.043581874569513381e+37
9.388789784996713934e+03 1.041247541618350882e+37
9.386733416770965050e+03 1.040659476160245916e+37
9.384677949135044400e+03 1.041890665528242257e+37
9.382623381497467562e+03 1.043609540627278858e+37
9.380569713267253974e+03 1.044798924203225567e+37
9.378516943853945122e+03 1.045681191391090621e+37
9.376465072667604545e+03 1.046388651567131321e+37
9.374414099118805098e+03 1.047531290846892922e+37
9.372364022618638046e+03 1.048345966435197432e+37
9.370314842578711250e+03 1.049790544095471777e+37
9.368266558411141887e+03 1.051210725291651679e+37
9.366219169528567363e+03 1.052594099427042079e+37
9.364172675344132585e+03 1.054037804185579370e+37
9.362127075271502690e+03 1.055667961684605852e+37
9.360082368724844855e+03 1.057538260730807749e+37
9.358038555118846489e+03 1.059002686405406091e+37
9.355995633868704317e+03 1.060911413815230930e+37
9.353953604390122564e+03 1.062393523282674820e+37
9.351912466099316589e+03 1.063652369134626639e+37
9.349872218413016526e+03 1.064766603987790208e+37
9.347832860748449093e+03 1.066054402573814881e+37
9.345794392523364877e+03 1.066999703929364643e+37
9.343756813156009230e+03 1.067833755707698716e+37
9.341720122065142277e+03 1.068868632657561246e+37
9.339684318670028006e+03 1.069471427757004656e+37
9.337649402390439718e+03 1.069725187887854287e+37
9.335615372646647302e+03 1.069649662206158467e+37
9.333582228859437237e+03 1.069697920149790651e+37
9.331549970450092587e+03 1.069522415240589558e+37
9.329518596840402097e+03 1.068874751009070239e+37
9.327488107452663826e+03 1.068382196130490831e+37
9.325458501709668781e+03 1.068557520054365796e+37
9.323429779034713647e+03 1.069055869372048795e+37
9.321401938851602608e+03 1.069720364533202212e+37
9.319374980584636432e+03 1.070167416935197992e+37
9.317348903658610652e+03 1.070352060468299007e+37
9.315323707498835574e+03 1.070276830670722232e+37
9.313299391531107176e+03 1.070105299340988279e+37
9.311275955181725294e+03 1.069588700599551803e+37
9.309253397877489988e+03 1.069209638866473073e+37
9.307231719045699720e+03 1.069635257448770516e+37
9.305210918114144079e+03 1.070204414672368647e+37
9.303190994511116514e+03 1.071168131173610158e+37
9.301171947665405241e+03 1.072250716126082495e+37
9.299153777006291421e+03 1.073425137200557588e+37
9.297136481963554616e+03 1.074344949472399584e+37
9.295120061967467336e+03 1.075378132747541609e+37
9.293104516448793220e+03 1.076592874347815501e+37
9.291089844838799763e+03 1.077571020214125300e+37
9.289076046569234677e+03 1.078333689693561090e+37
9.287063121072345893e+03 1.079492799249569232e+37
9.285051067780872472e+03 1.080652537065795262e+37
9.283039886128044600e+03 1.081744176587726627e+37
9.281029575547579952e+03 1.082960941316533069e+37
9.279020135473694609e+03 1.084175043952882648e+37
9.277011565341084861e+03 1.085455215100389915e+37
9.275003864584943585e+03 1.086819548302519359e+37
9.272997032640949328e+03 1.088286793921013912e+37
9.270991068945271763e+03 1.089761205661308657e+37
9.268985972934560778e+03 1.091259161049192842e+37
9.266981744045964660e+03 1.092685413776923519e+37
9.264978381717110096e+03 1.093974506202982577e+37
9.262975885386111258e+03 1.095309710658176994e+37
9.260974254491571628e+03 1.096647461562048045e+37
9.258973488472578538e+03 1.097832993749779485e+37
9.256973586768697714e+03 1.098915953499712804e+37
9.254974548819991469e+03 1.099818267419232090e+37
9.252976374066993230e+03 1.100724353666306234e+37
9.250979061950722098e+03 1.101490325731252856e+37
9.248982611912690118e+03 1.102104221207232831e+37
9.246987023394876815e+03 1.102456113053971012e+37
9.244992295839752842e+03 1.101742582335070477e+37
9.242998428690267247e+03 1.100654100933718566e+37
9.241005421389847470e+03 1.099148344793987811e+37
9.239013273382401167e+03 1.097343719385843111e+37
9.237021984112321661e+03 1.094839424579178457e+37
9.235031553024473396e+03 1.092945535286514162e+37
9.233041979564199210e+03 1.092043578011199071e+37
9.231053263177327608e+03 1.091148996928184235e+37
9.229065403310158217e+03 1.090116590002417440e+37
9.227078399409465419e+03 1.088948338415886045e+37
9.225092250922509265e+03 1.088368036125450076e+37
9.223106957297015470e+03 1.088088594376816728e+37
9.221122517981188139e+03 1.087777699041373844e+37
9.219138932423711594e+03 1.087729416478941097e+37
9.217156200073737637e+03 1.087411546584173278e+37
9.215174320380892823e+03 1.087123709426164827e+37
9.213193292795283924e+03 1.086780270215771676e+37
9.211213116767479733e+03 1.086036986696281870e+37
9.209233791748525618e+03 1.086114900665170481e+37
9.207255317189945345e+03 1.086289894800433910e+37
9.205277692543724697e+03 1.086003321382287845e+37
9.203300917262324219e+03 1.085065070495297020e+37
9.201324990798675572e+03 1.084298906139168422e+37
9.199349912606176076e+03 1.083827095889468632e+37
9.197375682138695993e+03 1.082898294873105563e+37
9.195402298850574880e+03 1.082454226707642015e+37
9.193429762196616139e+03 1.082648058194940830e+37
9.191458071632096107e+03 1.083660858207666244e+37
9.189487226612754966e+03 1.084668427328194415e+37
9.187517226594800377e+03 1.085768364015187165e+37
9.185548071034903842e+03 1.086441043264158265e+37
9.183579759390209801e+03 1.086933529514701669e+37
9.181612291118321082e+03 1.087178960209657136e+37
9.179645665677304351e+03 1.087437086788738314e+37
9.177679882525697394e+03 1.087668063401709736e+37
9.175714941122496384e+03 1.087951198685870765e+37
9.173750840927159516e+03 1.088592023153619879e+37
9.171787581399614282e+03 1.089137705338914181e+37
9.169825162000244745e+03 1.090076001230233968e+37
9.167863582189896988e+03 1.090651833418001235e+37
9.165902841429880937e+03 1.091004994617358208e+37
9.163942939181966722e+03 1.091610982609334507e+37
9.161983874908379221e+03 1.091702122378222650e+37
9.160025648071814430e+03 1.091807490334777243e+37
9.158068258135417636e+03 1.091764687566079847e+37
9.156111704562794330e+03 1.092534371496239023e+37
9.154155986818015663e+03 1.093460816961047140e+37
9.152201104365600258e+03 1.094547487641946002e+37
9.150247056670528764e+03 1.095472357360835703e+37
