# wavelength(A) luminosity(erg/s/A)
1.000000000000000000e+04 5.047816980062467901e+36
9.997667210984103804e+03 5.049075411212830203e+36
9.995335510095288555e+03 5.050414544165117781e+36
9.993004896572398138e+03 5.051303966523085186e+36
9.990675369654989481e+03 5.051402660801497242e+36
9.988346928583318004e+03 5.052536875772037896e+36
9.986019572598363084e+03 5.053940332384067535e+36
9.983693300941797133e+03 5.055603570778770188e+36
9.981368112856000153e+03 5.056797278585267047e+36
9.979044007584074279e+03 5.057968324169438642e+36
9.976720984369805592e+03 5.059269804145541075e+36
9.974399042457691394e+03 5.060524350624030616e+36
9.972078181092938394e+03 5.062041492805225712e+36
9.969758399521451793e+03 5.063403611778961586e+36
9.967439696989833465e+03 5.064617967963407253e+36
9.965122072745391051e+03 5.065756006814386088e+36
9.962805526036134324e+03 5.067024320913270800e+36
9.960490056110758815e+03 5.068200404711516987e+36
9.958175662218682191e+03 5.069506936642413943e+36
9.955862343609996969e+03 5.070963838096799765e+36
9.953550099535501431e+03 5.072435434792896491e+36
9.951238929246690532e+03 5.073914046648316429e+36
9.948928831995755900e+03 5.075382469305251260e+36
9.946619807035574922e+03 5.076891655702211110e+36
9.944311853619728936e+03 5.078495019185676369e+36
9.942004971002486855e+03 5.080063379225800836e+36
9.939699158438805171e+03 5.081622807795911623e+36
9.937394415184338868e+03 5.083147439404209955e+36
9.935090740495432328e+03 5.084624921707617659e+36
9.932788133629108415e+03 5.085893927486269846e+36
9.930486593843097580e+03 5.087144546381678016e+36
9.928186120395803300e+03 5.088550708079663198e+36
9.925886712546320268e+03 5.089630527567035986e+36
9.923588369554430756e+03 5.090612390024683471e+36
9.921291090680602792e+03 5.091552606035799745e+36
9.918994875185979254e+03 5.092746137774892752e+36
9.916699722332408783e+03 5.094429359244243054e+36
9.914405631382398496e+03 5.096261077921644387e+36
9.912112601599152185e+03 5.097931924234264979e+36
9.909820632246555761e+03 5.099451670716611111e+36
9.907529722589168159e+03 5.101017598286842076e+36
9.905239871892230440e+03 5.102540170220477037e+36
9.902951079421667600e+03 5.103926117891232226e+36
9.900663344444077666e+03 5.105371762653903862e+36
9.898376666226738962e+03 5.106814679989829009e+36
9.896091044037604661e+03 5.108424426673807337e+36
9.893806477145308236e+03 5.110044253685617277e+36
9.891522964819148910e+03 5.111276656092780784e+36
9.889240506329115306e+03 5.112483835667969155e+36
9.886959100945854516e+03 5.113826450609723685e+36
9.884678747940692119e+03 5.115025500046554601e+36
9.882399446585630358e+03 5.116080795524020412e+36
9.880121196153340861e+03 5.117162703212347759e+36
9.877843995917157372e+03 5.118291279933793758e+36
9.875567845151095753e+03 5.119558619688827178e+36
9.873292743129835799e+03 5.121034178013404681e+36
9.871018689128717597e+03 5.122587484299162410e+36
9.868745682423765174e+03 5.124073537346981571e+36
9.866473722291653758e+03 5.125411001240738330e+36
9.864202808009733417e+03 5.126490237405956293e+36
9.861932938856016335e+03 5.127576031004324885e+36
9.859664114109178627e+03 5.128746572650158681e+36
9.857396333048563974e+03 5.130092034935993294e+36
9.855129594954172717e+03 5.131351560565681347e+36
9.852863899106672761e+03 5.132662317130479025e+36
9.850599244787390489e+03 5.134049224913801424e+36
9.848335631278314395e+03 5.135411625144388371e+36
9.846073057862089627e+03 5.136580077098990867e+36
9.843811523822023446e+03 5.137795797647014416e+36
9.841551028442083407e+03 5.139412334864741927e+36
9.839291571006888262e+03 5.141299291377487996e+36
9.837033150801717056e+03 5.142830064932848557e+36
9.834775767112510948e+03 5.143918459641017118e+36
9.832519419225853198e+03 5.145078508723348149e+36
9.830264106428990999e+03 5.146366076575630371e+36
9.828009828009828198e+03 5.147497435177278478e+36
9.825756583256910744e+03 5.148470503979386182e+36
9.823504371459444883e+03 5.149483177237196869e+36
9.821253191907286237e+03 5.150660902155505158e+36
9.819003043890945264e+03 5.151967283490295535e+36
9.816753926701569071e+03 5.153439340566845304e+36
9.814505839630974151e+03 5.154798244829411646e+36
9.812258781971610006e+03 5.156287099166255858e+36
9.810012753016577335e+03 5.157921105197234924e+36
9.807767752059631675e+03 5.159522199352845546e+36
9.805523778395163390e+03 5.161042208863881084e+36
9.803280831318212222e+03 5.162504306311901235e+36
9.801038910124472750e+03 5.163853974671502575e+36
9.798798014110270742e+03 5.165303265700287014e+36
9.796558142572575889e+03 5.166886575254384989e+36
9.794319294809010898e+03 5.168448047382654419e+36
9.792081470117831486e+03 5.169867500788267970e+36
9.789844667797937291e+03 5.171060776820621112e+36
9.787608887148870053e+03 5.172079781635227653e+36
9.785374127470808162e+03 5.173231646149552242e+36
9.783140388064568469e+03 5.174247453396161245e+36
9.780907668231611751e+03 5.175162494879249866e+36
9.778675967274031791e+03 5.176198644125277962e+36
9.776445284494557200e+03 5.177346025411753730e+36
9.774215619196560510e+03 5.178599650748035605e+36
9.771986970684039989e+03 5.180126411614236296e+36
9.769759338261632365e+03 5.181636965823434449e+36
9.767532721234616474e+03 5.183006032808495711e+36
9.765307118908889606e+03 5.184372793842228478e+36
9.763082530590991155e+03 5.185844157112487825e+36
9.760858955588091703e+03 5.187417627055595440e+36
9.758636393207989386e+03 5.189065123530704266e+36
9.756414842759113526e+03 5.190665899719159805e+36
9.754194303550526456e+03 5.192299879674232294e+36
9.751974774891916240e+03 5.193857696328654412e+36
9.749756256093596676e+03 5.195440172797433466e+36
9.747538746466518205e+03 5.197168137993287976e+36
9.745322245322246090e+03 5.199016929524233409e+36
9.743106751972978600e+03 5.199909254379485564e+36
9.740892265731541556e+03 5.199548591638102514e+36
9.738678785911377418e+03 5.199300540815380006e+36
9.736466311826559831e+03 5.200042166693694754e+36
9.734254842791784540e+03 5.201304843225604086e+36
9.732044378122365742e+03 5.202302214981118418e+36
9.729834917134237912e+03 5.203276267343936718e+36
9.727626459143968532e+03 5.204676110294974276e+36
9.725419003468732626e+03 5.206232885093918563e+36
9.723212549426329133e+03 5.208035065221174233e+36
9.721007096335180904e+03 5.209618075401919233e+36
9.718802643514320152e+03 5.211119774592577300e+36
9.716599190283399366e+03 5.212471735773040916e+36
9.714396735962696766e+03 5.213895126606795617e+36
9.712195279873094478e+03 5.215115777435488929e+36
9.709994821336094901e+03 5.216016716320809396e+36
9.707795359673818893e+03 5.216985947576673431e+36
9.705596894208994854e+03 5.218097355259904162e+36
9.703399424264966001e+03 5.219358466829865087e+36
9.701202949165697646e+03 5.220564961144273601e+36
9.699007468235751730e+03 5.221564411171998248e+36
9.696812980800310470e+03 5.222678299277513390e+36
9.694619486185167261e+03 5.223945291595212814e+36
9.692426983716724862e+03 5.225171890207215891e+36
9.690235472721986298e+03 5.226525401171040066e+36
9.688044952528580325e+03 5.228002710571648682e+36
9.685855422464728690e+03 5.229083641881705644e+36
9.683666881859262503e+03 5.229733323737461469e+36
9.681479330041629510e+03 5.230723166978505176e+36
9.679292766341874085e+03 5.231988893271853392e+36
9.677107190090642689e+03 5.233430766865383551e+36
9.674922600619194782e+03 5.235003378565049331e+36
9.672738997259391908e+03 5.236503267037526987e+36
9.670556379343692242e+03 5.238031662375306367e+36
9.668374746205161500e+03 5.239328825863434097e+36
9.666194097177471122e+03 5.240685543070728853e+36
9.664014431594883717e+03 5.242163295126971722e+36
9.661835748792271261e+03 5.243734719712766359e+36
9.659658048105096896e+03 5.245240671912440991e+36
9.657481328869431309e+03 5.246672364807797067e+36
9.655305590421936358e+03 5.248043511695237229e+36
9.653130832099877807e+03 5.248788697488027292e+36
9.650957053241112590e+03 5.249523253585191954e+36
9.648784253184099725e+03 5.250948122616386977e+36
9.646612431267887587e+03 5.252249354501267952e+36
9.644441586832122994e+03 5.253732550722272591e+36
9.642271719217049395e+03 5.255383916533599829e+36
9.640102827763495952e+03 5.256842955000000200e+36
9.637934911812893915e+03 5.258317599830172310e+36
9.635767970707265704e+03 5.259523248004231947e+36
9.633602003789217633e+03 5.260765369593989456e+36
9.631437010401950829e+03 5.261809994900508792e+36
9.629272989889263044e+03 5.262881409211368579e+36
9.627109941595532291e+03 5.264144554738397035e+36
9.624947864865731390e+03 5.265426914085470220e+36
9.622786759045420695e+03 5.266598392753599988e+36
9.620626623480744456e+03 5.267783245924062543e+36
9.618467457518434458e+03 5.268915975758094544e+36
9.616309260505819111e+03 5.269802301230552946e+36
9.614152031790797992e+03 5.270363748641969545e+36
9.611995770721860026e+03 5.271250924650963550e+36
9.609840476648087133e+03 5.272717464329914856e+36
9.607686148919137850e+03 5.274340347232370362e+36
9.605532786885245514e+03 5.275636049791508835e+36
9.603380389897243731e+03 5.276775240016700044e+36
9.601228957306537268e+03 5.277913388452622181e+36
9.599078488465107512e+03 5.278754068111083229e+36
9.596928982725527021e+03 5.279582549147347828e+36
9.594780439440944974e+03 5.280608354743507403e+36
9.592632857965083531e+03 5.281582402242147736e+36
9.590486237652250566e+03 5.282660190234168332e+36
9.588340577857325115e+03 5.283943553303746947e+36
9.586195877935771932e+03 5.285160840128927484e+36
9.584052137243626930e+03 5.286259814845997173e+36
9.581909355137500825e+03 5.287440154588811615e+36
9.579767530974582769e+03 5.288761869738416519e+36
9.577626664112633080e+03 5.290313885393021064e+36
9.575486753909990512e+03 5.291679646290814909e+36
9.573347799725563164e+03 5.292883721824129794e+36
9.571209800918835754e+03 5.294046215806184871e+36
9.569072756849862344e+03 5.295414953859344012e+36
9.566936666879264521e+03 5.296707022960721513e+36
9.564801530368245949e+03 5.297823130712323144e+36
9.562667346678568720e+03 5.299009754807035295e+36
9.560534115172567908e+03 5.300399734717712285e+36
9.558401835213153390e+03 5.301922191964290132e+36
9.556270506163793470e+03 5.303326637202515144e+36
9.554140127388534893e+03 5.304452324446882437e+36
9.552010698251982831e+03 5.305507159487338962e+36
9.549882218119309982e+03 5.306618237850141953e+36
9.547754686356256570e+03 5.307629991256870665e+36
9.545628102329132162e+03 5.308463532073446517e+36
9.543502465404802933e+03 5.309073967429987927e+36
9.541377774950702587e+03 5.309820028263978457e+36
9.539254030334828713e+03 5.310742560112495088e+36
9.537131230925739146e+03 5.311662641390616874e+36
9.535009376092551975e+03 5.312834681992231099e+36
9.532888465204956447e+03 5.314357754177373246e+36
9.530768497633192965e+03 5.315677151483428658e+36
9.528649472748062180e+03 5.316975211999487194e+36
9.526531389920930451e+03 5.318414112168160429e+36
9.524414248523715287e+03 5.319958732007936511e+36
9.522298047928899905e+03 5.321202386907806349e+36
9.520182787509520494e+03 5.322346780909878124e+36
9.518068466639169856e+03 5.323603775303990336e+36
9.515955084691999218e+03 5.324996622114755299e+36
9.513842641042716423e+03 5.326545255607838517e+36
9.511731135066582283e+03 5.327989638610552688e+36
9.509620566139410585e+03 5.329264063164943620e+36
9.507510933637573544e+03 5.330377591058871965e+36
9.505402236937994530e+03 5.331514944719871613e+36
9.503294475418144430e+03 5.332685214992969266e+36
9.501187648456058014e+03 5.333799068698906335e+36
9.499081755430310295e+03 5.335077013813721353e+36
9.496976795720029259e+03 5.336687044678254617e+36
9.494872768704899499e+03 5.338302484815140099e+36
9.492769673765149491e+03 5.339548477768141658e+36
9.490667510281555224e+03 5.340726600313925468e+36
9.488566277635449296e+03 5.341961033085249632e+36
9.486465975208702730e+03 5.343381051200520051e+36
9.484366602383737700e+03 5.344876836152361625e+36
9.482268158543523896e+03 5.346305489727850812e+36
9.480170643071576706e+03 5.347733930613524822e+36
9.478074055351951756e+03 5.349376408466069698e+36
9.475978394769259467e+03 5.350984612316658562e+36
9.473883660708646858e+03 5.352430526248892302e+36
9.471789852555803009e+03 5.353845521461613545e+36
9.469696969696969973e+03 5.355407208094042570e+36
9.467605011518920946e+03 5.357131174586242778e+36
9.465513977408973005e+03 5.358837844411286777e+36
9.463423866754992559e+03 5.360480309033306162e+36
9.461334678945377163e+03 5.362370139799947422e+36
9.459246413369068250e+03 5.364381933686406953e+36
9.457159069415547492e+03 5.366381671613692639e+36
9.455072646474834983e+03 5.368324797325397525e+36
9.452987143937483779e+03 5.370326449150638721e+36
9.450902561194594455e+03 5.372288196979216547e+36
9.448818897637795089e+03 5.374270542093807337e+36
9.446736152659255822e+03 5.376286178271395625e+36
9.444654325651681575e+03 5.378320302468378864e+36
9.442573416008310232e+03 5.379351720876345125e+36
9.440493423122914464e+03 5.378269752091662355e+36
9.438414346389807179e+03 5.376665045525320346e+36
9.436336185203825153e+03 5.376794428923685484e+36
9.434258938960343585e+03 5.378048026570308325e+36
9.432182607055272456e+03 5.379302508511651257e+36
9.430107188885047435e+03 5.381505739183586050e+36
9.428032683846637156e+03 5.382235909758309063e+36
9.425959091337543214e+03 5.380915528211961461e+36
9.423886410755796533e+03 5.379410125770058365e+36
9.421814641499951904e+03 5.380860550785247480e+36
9.419743782969102540e+03 5.383519240060671727e+36
9.417673834562863703e+03 5.386435164128772327e+36
9.415604795681376345e+03 5.389763644356161364e+36
9.413536665725312560e+03 5.391521388628019074e+36
9.411469444095871950e+03 5.392813699642037239e+36
9.409403130194774349e+03 5.393376873060222807e+36
9.407337723424270735e+03 5.394208354483663298e+36
9.405273223187134136e+03 5.394729119891935627e+36
9.403209628886659630e+03 5.394869705161176930e+36
9.401146939926671621e+03 5.393224300779020620e+36
9.399085155711511106e+03 5.391086903435623706e+36
9.397024275646044771e+03 5.391984454620331935e+36
9.394964299135663168e+03 5.393713324163452963e+36
9.392905225586275265e+03 5.394708277356816742e+36
9.390847054404306618e+03 5.396762495805219803e+36
9.388789784996713934e+03 5.399097058552287680e+36
9.386733416770965050e+03 5.401314755878486302e+36
9.384677949135044400e+03 5.402879833001532379e+36
9.382623381497467562e+03 5.405292974024767379e+36
9.380569713267253974e+03 5.407185180381304548e+36
9.378516943853945122e+03 5.409116145685295203e+36
9.376465072667604545e+03 5.410797028389753393e+36
9.374414099118805098e+03 5.412023608580599358e+36
9.372364022618638046e+03 5.413299973807292742e+36
9.370314842578711250e+03 5.414521718775264230e+36
9.368266558411141887e+03 5.415344242186956068e+36
9.366219169528567363e+03 5.414998585973518246e+36
9.364172675344132585e+03 5.414442100699516872e+36
9.362127075271502690e+03 5.415487930588524773e+36
9.360082368724844855e+03 5.416182487767561368e+36
9.358038555118846489e+03 5.417085954610133016e+36
9.355995633868704317e+03 5.417915157476506446e+36
9.353953604390122564e+03 5.418105383262772852e+36
9.351912466099316589e+03 5.417355163263644271e+36
9.349872218413016526e+03 5.416510689536400637e+36
9.347832860748449093e+03 5.417176486774555397e+36
9.345794392523364877e+03 5.418117493921768174e+36
9.343756813156009230e+03 5.419627854307018826e+36
9.341720122065142277e+03 5.420825647905973603e+36
9.339684318670028006e+03 5.421042823153449274e+36
9.337649402390439718e+03 5.420472923643587500e+36
9.335615372646647302e+03 5.420692901056134428e+36
9.333582228859437237e+03 5.421490177583968537e+36
9.331549970450092587e+03 5.423342584588390446e+36
9.329518596840402097e+03 5.424734809825866311e+36
9.327488107452663826e+03 5.426333200641216176e+36
9.325458501709668781e+03 5.427585635086172312e+36
9.323429779034713647e+03 5.428625657869418927e+36
9.321401938851602608e+03 5.429285583310402016e+36
9.319374980584636432e+03 5.429365461775796216e+36
9.317348903658610652e+03 5.430300474693787499e+36
9.315323707498835574e+03 5.431565128963062810e+36
9.313299391531107176e+03 5.433009199518158670e+36
9.311275955181725294e+03 5.434422538181109862e+36
9.309253397877489988e+03 5.436340300473373226e+36
9.307231719045699720e+03 5.437879883759374358e+36
9.305210918114144079e+03 5.439722446936452800e+36
9.303190994511116514e+03 5.440940704710338657e+36
9.301171947665405241e+03 5.442510287789994063e+36
9.299153777006291421e+03 5.443576530451257220e+36
9.297136481963554616e+03 5.444857857137478975e+36
9.295120061967467336e+03 5.446358755772534456e+36
9.293104516448793220e+03 5.448041751116121739e+36
9.291089844838799763e+03 5.449508405828352229e+36
9.289076046569234677e+03 5.450871200532053927e+36
9.287063121072345893e+03 5.452256838693996206e+36
9.285051067780872472e+03 5.453736404383726981e+36
9.283039886128044600e+03 5.455380878402881999e+36
9.281029575547579952e+03 5.457056624203396719e+36
9.279020135473694609e+03 5.458643012891025396e+36
9.277011565341084861e+03 5.460399512189590841e+36
9.275003864584943585e+03 5.462308458263844968e+36
9.272997032640949328e+03 5.463989642546598109e+36
9.270991068945271763e+03 5.465781474348894386e+36
9.268985972934560778e+03 5.467913180341982405e+36
9.266981744045964660e+03 5.470069175777679111e+36
9.264978381717110096e+03 5.471852396927267435e+36
9.262975885386111258e+03 5.473937662508241012e+36
9.260974254491571628e+03 5.476390521739486756e+36
9.258973488472578538e+03 5.479294227767432546e+36
9.256973586768697714e+03 5.482204075016920971e+36
9.254974548819991469e+03 5.484973157932700186e+36
9.252976374066993230e+03 5.487670807866436455e+36
9.250979061950722098e+03 5.490448152526010506e+36
9.248982611912690118e+03 5.493016346445330279e+36
9.246987023394876815e+03 5.493999503019782846e+36
9.244992295839752842e+03 5.494038405897183089e+36
9.242998428690267247e+03 5.496164356864030627e+36
9.241005421389847470e+03 5.498743614541485639e+36
9.239013273382401167e+03 5.500195415767693203e+36
9.237021984112321661e+03 5.502352771091775282e+36
9.235031553024473396e+03 5.504263155882657789e+36
9.233041979564199210e+03 5.506577981087211891e+36
9.231053263177327608e+03 5.505440006861815423e+36
9.229065403310158217e+03 5.504203637020457185e+36
9.227078399409465419e+03 5.505438740051599270e+36
9.225092250922509265e+03 5.508735577803660894e+36
9.223106957297015470e+03 5.508244951912247684e+36
9.221122517981188139e+03 5.505765945800612232e+36
9.219138932423711594e+03 5.502876011154690969e+36
9.217156200073737637e+03 5.503361326404718173e+36
9.215174320380892823e+03 5.504118795347643926e+36
9.213193292795283924e+03 5.506474563151740840e+36
9.211213116767479733e+03 5.507625403708166493e+36
9.209233791748525618e+03 5.506841839683832573e+36
9.207255317189945345e+03 5.501289947017332611e+36
9.205277692543724697e+03 5.490254698046859290e+36
9.203300917262324219e+03 5.484822545485300664e+36
9.201324990798675572e+03 5.482488372805262731e+36
9.199349912606176076e+03 5.481115682196377921e+36
9.197375682138695993e+03 5.483418694536221820e+36
9.195402298850574880e+03 5.482874985513929521e+36
9.193429762196616139e+03 5.482264293677867210e+36
9.191458071632096107e+03 5.481128544364345904e+36
9.189487226612754966e+03 5.482856231904912904e+36
9.187517226594800377e+03 5.484368006875866372e+36
9.185548071034903842e+03 5.487598932441831842e+36
9.183579759390209801e+03 5.489881950771133532e+36
9.181612291118321082e+03 5.491469211262126404e+36
9.179645665677304351e+03 5.493163123591854515e+36
9.177679882525697394e+03 5.494404843106851410e+36
9.175714941122496384e+03 5.495333144525114816e+36
9.173750840927159516e+03 5.496913798352935801e+36
9.171787581399614282e+03 5.498586705270616276e+36
9.169825162000244745e+03 5.500836378784521405e+36
9.167863582189896988e+03 5.503132359070903502e+36
9.165902841429880937e+03 5.506569427228648908e+36
9.163942939181966722e+03 5.508232919279579689e+36
9.161983874908379221e+03 5.511757119823785669e+36
9.160025648071814430e+03 5.513702052560891352e+36
9.158068258135417636e+03 5.516965783498371676e+36
9.156111704562794330e+03 5.520754635240283309e+36
9.154155986818015663e+03 5.522982150349370963e+36
9.152201104365600258e+03 5.525808973774857077e+36
9.150247056670528764e+03 5.528431265204163369e+36
