# wavelength(A) luminosity(erg/s/A)
1.000000000000000000e+04 1.498362677799169320e+37
9.997667210984103804e+03 1.499890023657822673e+37
9.995335510095288555e+03 1.501581411556618397e+37
9.993004896572398138e+03 1.503291055569659883e+37
9.990675369654989481e+03 1.504944643553023525e+37
9.988346928583318004e+03 1.500101411226532966e+37
9.986019572598363084e+03 1.489915114968243474e+37
9.983693300941797133e+03 1.479643184621216200e+37
9.981368112856000153e+03 1.467519775903681611e+37
9.979044007584074279e+03 1.455171796006875183e+37
9.976720984369805592e+03 1.443504368808314076e+37
9.974399042457691394e+03 1.430078651920732328e+37
9.972078181092938394e+03 1.418985889428786065e+37
9.969758399521451793e+03 1.406614096737643144e+37
9.967439696989833465e+03 1.404356552708568788e+37
9.965122072745391051e+03 1.401434159947974512e+37
9.962805526036134324e+03 1.397502640221673225e+37
9.960490056110758815e+03 1.394907708527942652e+37
9.958175662218682191e+03 1.393134787947522366e+37
9.955862343609996969e+03 1.390018981822644854e+37
9.953550099535501431e+03 1.390710314889983961e+37
9.951238929246690532e+03 1.389943655485468923e+37
9.948928831995755900e+03 1.388731609956145992e+37
9.946619807035574922e+03 1.386849138509879703e+37
9.944311853619728936e+03 1.384657998838139175e+37
9.942004971002486855e+03 1.383641565028865968e+37
9.939699158438805171e+03 1.382266226444783889e+37
9.937394415184338868e+03 1.380364083840002443e+37
9.935090740495432328e+03 1.379049347845939791e+37
9.932788133629108415e+03 1.377572283760054379e+37
9.930486593843097580e+03 1.377057580886819731e+37
9.928186120395803300e+03 1.376514975136310459e+37
9.925886712546320268e+03 1.376156804244802839e+37
9.923588369554430756e+03 1.375988547221256372e+37
9.921291090680602792e+03 1.375491654202823360e+37
9.918994875185979254e+03 1.375382152965751227e+37
9.916699722332408783e+03 1.375254824868793246e+37
9.914405631382398496e+03 1.374848395579659532e+37
9.912112601599152185e+03 1.374907030776340363e+37
9.909820632246555761e+03 1.375011576748478581e+37
9.907529722589168159e+03 1.375193065263840720e+37
9.905239871892230440e+03 1.375578730025209825e+37
9.902951079421667600e+03 1.376254794461925622e+37
9.900663344444077666e+03 1.377569563422919124e+37
9.898376666226738962e+03 1.378932100587431694e+37
9.896091044037604661e+03 1.380438436816922822e+37
9.893806477145308236e+03 1.382121959471768596e+37
9.891522964819148910e+03 1.383894967500264474e+37
9.889240506329115306e+03 1.385922872442323715e+37
9.886959100945854516e+03 1.388113954373824317e+37
9.884678747940692119e+03 1.390327557134107359e+37
9.882399446585630358e+03 1.392381983726046715e+37
9.880121196153340861e+03 1.394213468686401926e+37
9.877843995917157372e+03 1.395760706792686281e+37
9.875567845151095753e+03 1.397176237753202307e+37
9.873292743129835799e+03 1.398525772298234371e+37
9.871018689128717597e+03 1.399694481970163102e+37
9.868745682423765174e+03 1.400754373032867266e+37
9.866473722291653758e+03 1.401505417440693599e+37
9.864202808009733417e+03 1.401754497535437374e+37
9.861932938856016335e+03 1.402137914522242608e+37
9.859664114109178627e+03 1.402779960622475504e+37
9.857396333048563974e+03 1.404083161141239499e+37
9.855129594954172717e+03 1.405428032437531352e+37
9.852863899106672761e+03 1.406930237097750300e+37
9.850599244787390489e+03 1.408638328540659228e+37
9.848335631278314395e+03 1.410424701527455602e+37
9.846073057862089627e+03 1.412073305467083183e+37
9.843811523822023446e+03 1.413607733299375277e+37
9.841551028442083407e+03 1.414977812885101460e+37
9.839291571006888262e+03 1.416154217407558885e+37
9.837033150801717056e+03 1.417347419734408596e+37
9.834775767112510948e+03 1.417924004583774998e+37
9.832519419225853198e+03 1.417473583390396722e+37
9.830264106428990999e+03 1.416387133393399480e+37
9.828009828009828198e+03 1.414566205133061175e+37
9.825756583256910744e+03 1.412750569766246237e+37
9.823504371459444883e+03 1.409563620963800471e+37
9.821253191907286237e+03 1.405876332524466928e+37
9.819003043890945264e+03 1.401133943789518689e+37
9.816753926701569071e+03 1.395667676386014105e+37
9.814505839630974151e+03 1.391011635887005077e+37
9.812258781971610006e+03 1.387919451675289808e+37
9.810012753016577335e+03 1.385731203922011413e+37
9.807767752059631675e+03 1.384945162377299328e+37
9.805523778395163390e+03 1.385017975395952643e+37
9.803280831318212222e+03 1.385610061555797654e+37
9.801038910124472750e+03 1.386012949827776459e+37
9.798798014110270742e+03 1.386531567173389245e+37
9.796558142572575889e+03 1.386230312682562703e+37
9.794319294809010898e+03 1.385761704568758326e+37
9.792081470117831486e+03 1.384321889644360285e+37
9.789844667797937291e+03 1.382834491134365426e+37
9.787608887148870053e+03 1.381227943386154099e+37
9.785374127470808162e+03 1.379005646995931548e+37
9.783140388064568469e+03 1.376832442738643840e+37
9.780907668231611751e+03 1.376158353770384169e+37
9.778675967274031791e+03 1.376275158951883321e+37
9.776445284494557200e+03 1.377351687037894642e+37
9.774215619196560510e+03 1.378770145351973758e+37
9.771986970684039989e+03 1.380470194931833934e+37
9.769759338261632365e+03 1.382818385063214095e+37
9.767532721234616474e+03 1.386001107141611634e+37
9.765307118908889606e+03 1.388860687462631907e+37
9.763082530590991155e+03 1.391581757774291024e+37
9.760858955588091703e+03 1.393714945388138033e+37
9.758636393207989386e+03 1.396108729064995953e+37
9.756414842759113526e+03 1.398761886233240439e+37
9.754194303550526456e+03 1.401268094105704071e+37
9.751974774891916240e+03 1.403473528442462824e+37
9.749756256093596676e+03 1.405565069617004315e+37
9.747538746466518205e+03 1.407330270096546357e+37
9.745322245322246090e+03 1.409196729514388528e+37
9.743106751972978600e+03 1.411098695707637124e+37
9.740892265731541556e+03 1.412453180881441294e+37
9.738678785911377418e+03 1.412688089105117820e+37
9.736466311826559831e+03 1.412795081393054398e+37
9.734254842791784540e+03 1.413173449774992888e+37
9.732044378122365742e+03 1.412965461125352429e+37
9.729834917134237912e+03 1.412346254217542105e+37
9.727626459143968532e+03 1.411342092361123265e+37
9.725419003468732626e+03 1.410112153389842345e+37
9.723212549426329133e+03 1.408732391082526658e+37
9.721007096335180904e+03 1.407219935218125929e+37
9.718802643514320152e+03 1.407192023066530600e+37
9.716599190283399366e+03 1.407356712170008554e+37
9.714396735962696766e+03 1.407542240136036799e+37
9.712195279873094478e+03 1.408158822796035741e+37
9.709994821336094901e+03 1.409093555120470693e+37
9.707795359673818893e+03 1.410245633097010874e+37
9.705596894208994854e+03 1.411674989642655744e+37
9.703399424264966001e+03 1.412995928960401886e+37
9.701202949165697646e+03 1.414128006597106037e+37
9.699007468235751730e+03 1.415257665824899602e+37
9.696812980800310470e+03 1.416427509662641734e+37
9.694619486185167261e+03 1.417634957896110208e+37
9.692426983716724862e+03 1.419167205280142070e+37
9.690235472721986298e+03 1.420356348494385897e+37
9.688044952528580325e+03 1.421708175483136819e+37
9.685855422464728690e+03 1.422900854009801381e+37
9.683666881859262503e+03 1.424271963963996027e+37
9.681479330041629510e+03 1.425209373837280704e+37
9.679292766341874085e+03 1.425818619091163926e+37
9.677107190090642689e+03 1.426286959877414004e+37
9.674922600619194782e+03 1.426766312034592963e+37
9.672738997259391908e+03 1.427358339508574618e+37
9.670556379343692242e+03 1.427900910260914460e+37
9.668374746205161500e+03 1.428488635641550618e+37
9.666194097177471122e+03 1.428823758141590487e+37
9.664014431594883717e+03 1.429043568077505179e+37
9.661835748792271261e+03 1.429755456551795857e+37
9.659658048105096896e+03 1.430562433284115084e+37
9.657481328869431309e+03 1.431545610336302616e+37
9.655305590421936358e+03 1.432603318666465627e+37
9.653130832099877807e+03 1.433655124551597419e+37
9.650957053241112590e+03 1.434501961498420279e+37
9.648784253184099725e+03 1.435099386180633348e+37
9.646612431267887587e+03 1.435802303375787326e+37
9.644441586832122994e+03 1.436560832792869028e+37
9.642271719217049395e+03 1.437467524818973684e+37
9.640102827763495952e+03 1.438366394841179110e+37
9.637934911812893915e+03 1.439330287708893831e+37
9.635767970707265704e+03 1.440479808648566177e+37
9.633602003789217633e+03 1.441749363264290177e+37
9.631437010401950829e+03 1.443210109548460787e+37
9.629272989889263044e+03 1.444966452970609349e+37
9.627109941595532291e+03 1.446802216867677410e+37
9.624947864865731390e+03 1.448471932818407708e+37
9.622786759045420695e+03 1.449995962225016184e+37
9.620626623480744456e+03 1.451621347865492650e+37
9.618467457518434458e+03 1.453512841809438838e+37
9.616309260505819111e+03 1.455649021546945281e+37
9.614152031790797992e+03 1.458020868346627606e+37
9.611995770721860026e+03 1.460208679325748869e+37
9.609840476648087133e+03 1.462379123503737917e+37
9.607686148919137850e+03 1.464892384306790572e+37
9.605532786885245514e+03 1.467904915441704397e+37
9.603380389897243731e+03 1.471571535561423515e+37
9.601228957306537268e+03 1.475672950498408970e+37
9.599078488465107512e+03 1.480307256725097805e+37
9.596928982725527021e+03 1.485178479425751321e+37
9.594780439440944974e+03 1.490320645689663302e+37
9.592632857965083531e+03 1.495962187905190314e+37
9.590486237652250566e+03 1.502035274469186522e+37
9.588340577857325115e+03 1.508366832856806930e+37
9.586195877935771932e+03 1.514944284111599917e+37
9.584052137243626930e+03 1.521975125899605425e+37
9.581909355137500825e+03 1.529106992441136972e+37
9.579767530974582769e+03 1.536249607573972449e+37
9.577626664112633080e+03 1.543473864643175058e+37
9.575486753909990512e+03 1.550756890488244015e+37
9.573347799725563164e+03 1.558176386495979615e+37
9.571209800918835754e+03 1.565385498412951034e+37
9.569072756849862344e+03 1.572015411317140593e+37
9.566936666879264521e+03 1.578474483183648822e+37
9.564801530368245949e+03 1.583870204212040019e+37
9.562667346678568720e+03 1.588748407714094905e+37
9.560534115172567908e+03 1.592731810887841840e+37
9.558401835213153390e+03 1.595595501174682079e+37
9.556270506163793470e+03 1.597399297822388032e+37
9.554140127388534893e+03 1.598376145434912350e+37
9.552010698251982831e+03 1.598783724675684613e+37
9.549882218119309982e+03 1.598972130477063775e+37
9.547754686356256570e+03 1.599338763002704557e+37
9.545628102329132162e+03 1.598982839942617393e+37
9.543502465404802933e+03 1.594673534272029893e+37
9.541377774950702587e+03 1.584194455502320871e+37
9.539254030334828713e+03 1.569027372375812445e+37
9.537131230925739146e+03 1.551383974747495069e+37
9.535009376092551975e+03 1.530306290069117455e+37
9.532888465204956447e+03 1.505043334935888119e+37
9.530768497633192965e+03 1.476281570578932505e+37
9.528649472748062180e+03 1.444281251869486238e+37
9.526531389920930451e+03 1.408667983117648969e+37
9.524414248523715287e+03 1.378647065886702024e+37
9.522298047928899905e+03 1.357759494897608629e+37
9.520182787509520494e+03 1.343537366502868739e+37
9.518068466639169856e+03 1.334383555072796017e+37
9.515955084691999218e+03 1.330747373995907023e+37
9.513842641042716423e+03 1.331940369537176825e+37
9.511731135066582283e+03 1.337818134929419923e+37
9.509620566139410585e+03 1.345954189172616202e+37
9.507510933637573544e+03 1.355278264955027396e+37
9.505402236937994530e+03 1.363674203510974394e+37
9.503294475418144430e+03 1.371655290352147063e+37
9.501187648456058014e+03 1.381299491649612858e+37
9.499081755430310295e+03 1.393963260737636301e+37
9.496976795720029259e+03 1.407774102966922216e+37
9.494872768704899499e+03 1.419389674344632930e+37
9.492769673765149491e+03 1.429756461181242159e+37
9.490667510281555224e+03 1.440733858031376307e+37
9.488566277635449296e+03 1.451278447717823659e+37
9.486465975208702730e+03 1.462663920455895170e+37
9.484366602383737700e+03 1.470820021651452207e+37
9.482268158543523896e+03 1.477768856083854172e+37
9.480170643071576706e+03 1.484319820175017781e+37
9.478074055351951756e+03 1.492945787957158389e+37
9.475978394769259467e+03 1.502200230618152061e+37
9.473883660708646858e+03 1.509949516425738426e+37
9.471789852555803009e+03 1.517468243089013527e+37
9.469696969696969973e+03 1.524182465991371268e+37
9.467605011518920946e+03 1.530098734320674510e+37
9.465513977408973005e+03 1.536290912041215913e+37
9.463423866754992559e+03 1.543488905255840831e+37
9.461334678945377163e+03 1.551398123311315931e+37
9.459246413369068250e+03 1.557866754773011865e+37
9.457159069415547492e+03 1.563157773914980013e+37
9.455072646474834983e+03 1.567694273378668958e+37
9.452987143937483779e+03 1.571684601551995914e+37
9.450902561194594455e+03 1.574261114995750531e+37
9.448818897637795089e+03 1.575783621262634653e+37
9.446736152659255822e+03 1.576055989414882852e+37
9.444654325651681575e+03 1.575377245811412850e+37
9.442573416008310232e+03 1.574180900001868125e+37
9.440493423122914464e+03 1.572312671959185496e+37
9.438414346389807179e+03 1.567690827573727768e+37
9.436336185203825153e+03 1.563488945089192890e+37
9.434258938960343585e+03 1.558737298235476756e+37
9.432182607055272456e+03 1.554066777854775809e+37
9.430107188885047435e+03 1.549712555752393622e+37
9.428032683846637156e+03 1.544414023773245966e+37
9.425959091337543214e+03 1.538590422436054703e+37
9.423886410755796533e+03 1.531848751172933705e+37
9.421814641499951904e+03 1.523052369231776135e+37
9.419743782969102540e+03 1.514947418115748640e+37
9.417673834562863703e+03 1.510977822868467273e+37
9.415604795681376345e+03 1.507035736153046832e+37
9.413536665725312560e+03 1.504805559815389844e+37
9.411469444095871950e+03 1.503801256648474656e+37
9.409403130194774349e+03 1.504463947035543245e+37
9.407337723424270735e+03 1.504212266307212853e+37
9.405273223187134136e+03 1.504911929668719233e+37
9.403209628886659630e+03 1.505026593282751287e+37
9.401146939926671621e+03 1.504082769369252459e+37
9.399085155711511106e+03 1.501156506145811813e+37
9.397024275646044771e+03 1.493893433812511184e+37
9.394964299135663168e+03 1.485174847107867143e+37
9.392905225586275265e+03 1.476262685770550432e+37
9.390847054404306618e+03 1.466077845486531360e+37
9.388789784996713934e+03 1.452276008037138275e+37
9.386733416770965050e+03 1.437506631666613998e+37
9.384677949135044400e+03 1.425951383916323009e+37
9.382623381497467562e+03 1.413599907094970492e+37
9.380569713267253974e+03 1.404773610622422925e+37
9.378516943853945122e+03 1.400715319344201636e+37
9.376465072667604545e+03 1.400539852558991947e+37
9.374414099118805098e+03 1.402938115210621626e+37
9.372364022618638046e+03 1.408030156753824658e+37
9.370314842578711250e+03 1.413975534129671041e+37
9.368266558411141887e+03 1.420255502965759069e+37
9.366219169528567363e+03 1.427909805072225664e+37
9.364172675344132585e+03 1.434494753614189340e+37
9.362127075271502690e+03 1.441730416189053938e+37
9.360082368724844855e+03 1.449478040088607844e+37
9.358038555118846489e+03 1.456805390276278941e+37
9.355995633868704317e+03 1.465259887119035187e+37
9.353953604390122564e+03 1.472010829435786690e+37
9.351912466099316589e+03 1.479658122150890357e+37
9.349872218413016526e+03 1.486137978907174443e+37
9.347832860748449093e+03 1.491796137505341615e+37
9.345794392523364877e+03 1.496842818502646703e+37
9.343756813156009230e+03 1.502215610876410762e+37
9.341720122065142277e+03 1.506743651255110126e+37
9.339684318670028006e+03 1.510122903468438322e+37
9.337649402390439718e+03 1.513188742842975374e+37
9.335615372646647302e+03 1.515221821748664727e+37
9.333582228859437237e+03 1.518034121185792090e+37
9.331549970450092587e+03 1.519252659972890209e+37
9.329518596840402097e+03 1.519818132362909059e+37
9.327488107452663826e+03 1.520205217831055039e+37
9.325458501709668781e+03 1.519824179114641920e+37
9.323429779034713647e+03 1.519198465391385437e+37
9.321401938851602608e+03 1.518162311642163796e+37
9.319374980584636432e+03 1.517078913837487030e+37
9.317348903658610652e+03 1.517426218896648182e+37
9.315323707498835574e+03 1.516634314995122828e+37
9.313299391531107176e+03 1.515930851748502140e+37
9.311275955181725294e+03 1.516084141983754368e+37
9.309253397877489988e+03 1.515947462288037122e+37
9.307231719045699720e+03 1.516121173446936854e+37
9.305210918114144079e+03 1.516269772255472706e+37
9.303190994511116514e+03 1.516984657823083105e+37
9.301171947665405241e+03 1.517129523616412347e+37
9.299153777006291421e+03 1.516784708783319540e+37
9.297136481963554616e+03 1.518672134983405977e+37
9.295120061967467336e+03 1.521078491455529916e+37
9.293104516448793220e+03 1.524360940895292584e+37
9.291089844838799763e+03 1.528198024028898045e+37
9.289076046569234677e+03 1.532631888501333575e+37
9.287063121072345893e+03 1.537449866962726749e+37
9.285051067780872472e+03 1.541850701777298686e+37
9.283039886128044600e+03 1.546768848623256868e+37
9.281029575547579952e+03 1.551121555763166391e+37
9.279020135473694609e+03 1.555749393193636896e+37
9.277011565341084861e+03 1.560141450238435531e+37
9.275003864584943585e+03 1.565085734180818786e+37
9.272997032640949328e+03 1.570350333802695844e+37
9.270991068945271763e+03 1.575616924199337528e+37
9.268985972934560778e+03 1.581061738656153671e+37
9.266981744045964660e+03 1.586181993941150652e+37
9.264978381717110096e+03 1.591240155660130761e+37
9.262975885386111258e+03 1.596595887199980811e+37
9.260974254491571628e+03 1.601015413388497906e+37
9.258973488472578538e+03 1.604601889104919546e+37
9.256973586768697714e+03 1.607227149444754704e+37
9.254974548819991469e+03 1.609036307035309125e+37
9.252976374066993230e+03 1.610319558304861063e+37
9.250979061950722098e+03 1.610863783533962338e+37
9.248982611912690118e+03 1.610992409265994566e+37
9.246987023394876815e+03 1.610004772438134027e+37
9.244992295839752842e+03 1.607545988366930324e+37
9.242998428690267247e+03 1.603081144010859735e+37
9.241005421389847470e+03 1.597517230154667203e+37
9.239013273382401167e+03 1.592138600743485854e+37
9.237021984112321661e+03 1.585318072705754947e+37
9.235031553024473396e+03 1.576253005514477734e+37
9.233041979564199210e+03 1.566645928206723002e+37
9.231053263177327608e+03 1.555868219569134404e+37
9.229065403310158217e+03 1.544505709182968622e+37
9.227078399409465419e+03 1.532816931099433296e+37
9.225092250922509265e+03 1.523919038028724840e+37
9.223106957297015470e+03 1.515006661657431009e+37
9.221122517981188139e+03 1.506096951921269757e+37
9.219138932423711594e+03 1.497219653465819358e+37
9.217156200073737637e+03 1.494044258843825160e+37
9.215174320380892823e+03 1.493914370714306900e+37
9.213193292795283924e+03 1.495136662859342636e+37
9.211213116767479733e+03 1.497997762250634934e+37
9.209233791748525618e+03 1.498527296354246537e+37
9.207255317189945345e+03 1.499938012055669252e+37
9.205277692543724697e+03 1.500699783471365650e+37
9.203300917262324219e+03 1.502593388867283095e+37
9.201324990798675572e+03 1.503198949455248755e+37
9.199349912606176076e+03 1.502414909596954059e+37
9.197375682138695993e+03 1.501453899625701294e+37
9.195402298850574880e+03 1.500208924646413502e+37
9.193429762196616139e+03 1.499086676895863119e+37
9.191458071632096107e+03 1.502568341964862627e+37
9.189487226612754966e+03 1.507804418090125631e+37
9.187517226594800377e+03 1.513288473577426768e+37
9.185548071034903842e+03 1.517908697106578197e+37
9.183579759390209801e+03 1.523910296795029031e+37
9.181612291118321082e+03 1.529746300348500136e+37
9.179645665677304351e+03 1.534651040028888652e+37
9.177679882525697394e+03 1.539713910784388214e+37
9.175714941122496384e+03 1.543868322959775922e+37
9.173750840927159516e+03 1.548177859777770658e+37
9.171787581399614282e+03 1.552525986243231593e+37
9.169825162000244745e+03 1.556217612632782197e+37
9.167863582189896988e+03 1.558741878494238562e+37
9.165902841429880937e+03 1.560484768425367749e+37
9.163942939181966722e+03 1.561060134064509392e+37
9.161983874908379221e+03 1.560355270504930106e+37
9.160025648071814430e+03 1.560063456603467792e+37
9.158068258135417636e+03 1.559675093699447673e+37
9.156111704562794330e+03 1.558809608222177440e+37
9.154155986818015663e+03 1.556939411610438076e+37
9.152201104365600258e+03 1.554881274172565527e+37
9.150247056670528764e+03 1.553201546665348213e+37
