# wavelength(A) luminosity(erg/s/A)
1.000000000000000000e+04 5.769952917210251111e+36
9.997667210984103804e+03 5.771614589005286300e+36
9.995335510095288555e+03 5.773360216521344523e+36
9.993004896572398138e+03 5.773201984309632501e+36
9.990675369654989481e+03 5.768588430244718694e+36
9.988346928583318004e+03 5.765206500223569264e+36
9.986019572598363084e+03 5.766677850590025357e+36
9.983693300941797133e+03 5.770363058006052647e+36
9.981368112856000153e+03 5.772253778425423996e+36
9.979044007584074279e+03 5.774511412551661689e+36
9.976720984369805592e+03 5.776067612500009457e+36
9.974399042457691394e+03 5.777864786229775813e+36
9.972078181092938394e+03 5.780072102230729054e+36
9.969758399521451793e+03 5.781745109087706193e+36
9.967439696989833465e+03 5.783323567685131445e+36
9.965122072745391051e+03 5.785199719331241964e+36
9.962805526036134324e+03 5.787146437236344832e+36
9.960490056110758815e+03 5.789352579930952410e+36
9.958175662218682191e+03 5.791522213946691896e+36
9.955862343609996969e+03 5.793477784763559658e+36
9.953550099535501431e+03 5.795466801002204496e+36
9.951238929246690532e+03 5.796889121529597515e+36
9.948928831995755900e+03 5.798347450869052532e+36
9.946619807035574922e+03 5.800103378469701656e+36
9.944311853619728936e+03 5.801964171220175151e+36
9.942004971002486855e+03 5.803593582286913314e+36
9.939699158438805171e+03 5.804991806512086732e+36
9.937394415184338868e+03 5.806630140193206660e+36
9.935090740495432328e+03 5.808292117796251844e+36
9.932788133629108415e+03 5.809999692428166089e+36
9.930486593843097580e+03 5.811878914990756813e+36
9.928186120395803300e+03 5.814162577223563991e+36
9.925886712546320268e+03 5.815849891943900265e+36
9.923588369554430756e+03 5.817526453328179748e+36
9.921291090680602792e+03 5.819514823181814682e+36
9.918994875185979254e+03 5.821625262453050391e+36
9.916699722332408783e+03 5.823397624289419771e+36
9.914405631382398496e+03 5.824973877737974421e+36
9.912112601599152185e+03 5.826559250908732369e+36
9.909820632246555761e+03 5.828390724684558536e+36
9.907529722589168159e+03 5.830312905846639341e+36
9.905239871892230440e+03 5.832233738069887597e+36
9.902951079421667600e+03 5.834104845985462192e+36
9.900663344444077666e+03 5.835999171578609718e+36
9.898376666226738962e+03 5.837833651725398496e+36
9.896091044037604661e+03 5.839585009815313066e+36
9.893806477145308236e+03 5.841597632172641735e+36
9.891522964819148910e+03 5.843676156971743121e+36
9.889240506329115306e+03 5.845722295234136670e+36
9.886959100945854516e+03 5.847806922095266168e+36
9.884678747940692119e+03 5.849251229177284209e+36
9.882399446585630358e+03 5.850515522423856694e+36
9.880121196153340861e+03 5.851990944381047457e+36
9.877843995917157372e+03 5.853193326020387909e+36
9.875567845151095753e+03 5.854467320207150071e+36
9.873292743129835799e+03 5.856257226299337565e+36
9.871018689128717597e+03 5.858120334849754094e+36
9.868745682423765174e+03 5.860015935304959230e+36
9.866473722291653758e+03 5.861758740272401429e+36
9.864202808009733417e+03 5.863235809359982482e+36
9.861932938856016335e+03 5.865204850251765257e+36
9.859664114109178627e+03 5.867219588253239539e+36
9.857396333048563974e+03 5.869267442554633355e+36
9.855129594954172717e+03 5.871432288894981765e+36
9.852863899106672761e+03 5.873407380825087919e+36
9.850599244787390489e+03 5.875341428503305530e+36
9.848335631278314395e+03 5.876860932384883102e+36
9.846073057862089627e+03 5.878345586682943661e+36
9.843811523822023446e+03 5.880226728598850298e+36
9.841551028442083407e+03 5.881944281341288339e+36
9.839291571006888262e+03 5.883366691967883813e+36
9.837033150801717056e+03 5.884331513025461454e+36
9.834775767112510948e+03 5.885247971901995502e+36
9.832519419225853198e+03 5.886818848695611566e+36
9.830264106428990999e+03 5.889155157374253645e+36
9.828009828009828198e+03 5.891490429463077292e+36
9.825756583256910744e+03 5.893512314464446470e+36
9.823504371459444883e+03 5.895264455253881937e+36
9.821253191907286237e+03 5.897137468653733421e+36
9.819003043890945264e+03 5.898988204958814075e+36
9.816753926701569071e+03 5.900728441611593836e+36
9.814505839630974151e+03 5.902830394744001887e+36
9.812258781971610006e+03 5.904939986140672234e+36
9.810012753016577335e+03 5.907384339733087336e+36
9.807767752059631675e+03 5.910099392531864195e+36
9.805523778395163390e+03 5.912383444572285197e+36
9.803280831318212222e+03 5.914325887132008953e+36
9.801038910124472750e+03 5.916164200771677229e+36
9.798798014110270742e+03 5.918405333083312186e+36
9.796558142572575889e+03 5.920207387086986894e+36
9.794319294809010898e+03 5.922111056967803107e+36
9.792081470117831486e+03 5.923948951000550364e+36
9.789844667797937291e+03 5.925744553261649161e+36
9.787608887148870053e+03 5.927435274743993163e+36
9.785374127470808162e+03 5.929243591032195521e+36
9.783140388064568469e+03 5.931040509260999723e+36
9.780907668231611751e+03 5.932689152108442291e+36
9.778675967274031791e+03 5.934553246466140233e+36
9.776445284494557200e+03 5.936503905028001283e+36
9.774215619196560510e+03 5.938711945898664717e+36
9.771986970684039989e+03 5.941145416786664505e+36
9.769759338261632365e+03 5.943752125236166072e+36
9.767532721234616474e+03 5.946194421938867913e+36
9.765307118908889606e+03 5.948423895605901132e+36
9.763082530590991155e+03 5.950780276393829056e+36
9.760858955588091703e+03 5.953524335334279202e+36
9.758636393207989386e+03 5.956152785288438523e+36
9.756414842759113526e+03 5.958778862213890382e+36
9.754194303550526456e+03 5.961285153481666356e+36
9.751974774891916240e+03 5.963361642441998319e+36
9.749756256093596676e+03 5.965353898514139475e+36
9.747538746466518205e+03 5.967241782705346633e+36
9.745322245322246090e+03 5.969454160932936866e+36
9.743106751972978600e+03 5.970421663564790174e+36
9.740892265731541556e+03 5.969211738482114121e+36
9.738678785911377418e+03 5.966957502150374658e+36
9.736466311826559831e+03 5.967115409657497689e+36
9.734254842791784540e+03 5.968767894835963566e+36
9.732044378122365742e+03 5.970261369647676183e+36
9.729834917134237912e+03 5.972075807649077312e+36
9.727626459143968532e+03 5.972938216398106397e+36
9.725419003468732626e+03 5.973794411285094977e+36
9.723212549426329133e+03 5.975900431274935394e+36
9.721007096335180904e+03 5.977588443348421761e+36
9.718802643514320152e+03 5.979442420609742545e+36
9.716599190283399366e+03 5.980960144094164506e+36
9.714396735962696766e+03 5.981924797893123153e+36
9.712195279873094478e+03 5.983301588566864067e+36
9.709994821336094901e+03 5.984917913031830798e+36
9.707795359673818893e+03 5.986860405003797767e+36
9.705596894208994854e+03 5.988931473649797350e+36
9.703399424264966001e+03 5.991372111411715890e+36
9.701202949165697646e+03 5.993860098686239586e+36
9.699007468235751730e+03 5.996131897859282002e+36
9.696812980800310470e+03 5.998376009190656603e+36
9.694619486185167261e+03 6.000276075158958084e+36
9.692426983716724862e+03 6.002341696006630627e+36
9.690235472721986298e+03 6.004396391416351791e+36
9.688044952528580325e+03 6.006333366270650377e+36
9.685855422464728690e+03 6.007574608280715130e+36
9.683666881859262503e+03 6.008064681099786210e+36
9.681479330041629510e+03 6.008702095898491679e+36
9.679292766341874085e+03 6.010390274639812464e+36
9.677107190090642689e+03 6.012195125965193112e+36
9.674922600619194782e+03 6.014254720417490425e+36
9.672738997259391908e+03 6.016664059048154463e+36
9.670556379343692242e+03 6.019229150071260435e+36
9.668374746205161500e+03 6.022069067068142975e+36
9.666194097177471122e+03 6.025029189522030522e+36
9.664014431594883717e+03 6.027595626400484500e+36
9.661835748792271261e+03 6.029705943734122227e+36
9.659658048105096896e+03 6.031834789138965297e+36
9.657481328869431309e+03 6.033411939197458748e+36
9.655305590421936358e+03 6.034854802308226362e+36
9.653130832099877807e+03 6.034273219768377291e+36
9.650957053241112590e+03 6.032691056078538370e+36
9.648784253184099725e+03 6.032465197910099777e+36
9.646612431267887587e+03 6.034835096057679547e+36
9.644441586832122994e+03 6.038466613996757428e+36
9.642271719217049395e+03 6.040840252795773805e+36
9.640102827763495952e+03 6.043394664144459410e+36
9.637934911812893915e+03 6.045525287892907511e+36
9.635767970707265704e+03 6.047566504866623314e+36
9.633602003789217633e+03 6.050254843298606827e+36
9.631437010401950829e+03 6.052383007436703580e+36
9.629272989889263044e+03 6.054437592118008212e+36
9.627109941595532291e+03 6.057141814937756822e+36
9.624947864865731390e+03 6.059690446219173650e+36
9.622786759045420695e+03 6.062147778796101262e+36
9.620626623480744456e+03 6.064110349432423769e+36
9.618467457518434458e+03 6.066061979232645341e+36
9.616309260505819111e+03 6.067519665855500296e+36
9.614152031790797992e+03 6.067359364087368205e+36
9.611995770721860026e+03 6.067337689453364284e+36
9.609840476648087133e+03 6.069121081185323068e+36
9.607686148919137850e+03 6.071444521712486114e+36
9.605532786885245514e+03 6.073131674171537930e+36
9.603380389897243731e+03 6.075747041088155532e+36
9.601228957306537268e+03 6.077726919252733605e+36
9.599078488465107512e+03 6.079407775819311243e+36
9.596928982725527021e+03 6.080408751543727133e+36
9.594780439440944974e+03 6.081432996722642864e+36
9.592632857965083531e+03 6.083259062455556593e+36
9.590486237652250566e+03 6.085059594554972230e+36
9.588340577857325115e+03 6.086396973187062092e+36
9.586195877935771932e+03 6.087734496667621423e+36
9.584052137243626930e+03 6.089535143064364353e+36
9.581909355137500825e+03 6.091526755181351500e+36
9.579767530974582769e+03 6.093730483282567369e+36
9.577626664112633080e+03 6.096172363978949571e+36
9.575486753909990512e+03 6.098342822618431574e+36
9.573347799725563164e+03 6.100630966001638277e+36
9.571209800918835754e+03 6.103241116249726842e+36
9.569072756849862344e+03 6.105853318761786524e+36
9.566936666879264521e+03 6.107864322592882602e+36
9.564801530368245949e+03 6.109511856200453161e+36
9.562667346678568720e+03 6.111218302724269489e+36
9.560534115172567908e+03 6.113231080349220776e+36
9.558401835213153390e+03 6.115757568380475024e+36
9.556270506163793470e+03 6.118405057135963472e+36
9.554140127388534893e+03 6.120359304015692029e+36
9.552010698251982831e+03 6.121986234161082550e+36
9.549882218119309982e+03 6.123913518893808408e+36
9.547754686356256570e+03 6.125248059748345706e+36
9.545628102329132162e+03 6.125287370985331158e+36
9.543502465404802933e+03 6.123806928423178351e+36
9.541377774950702587e+03 6.121860524356267800e+36
9.539254030334828713e+03 6.121029172079987824e+36
9.537131230925739146e+03 6.121836387902208638e+36
9.535009376092551975e+03 6.122961047558687147e+36
9.532888465204956447e+03 6.124482209783887069e+36
9.530768497633192965e+03 6.125649087915132019e+36
9.528649472748062180e+03 6.127495962305665424e+36
9.526531389920930451e+03 6.129381243630590761e+36
9.524414248523715287e+03 6.131007195839172937e+36
9.522298047928899905e+03 6.132844356071159533e+36
9.520182787509520494e+03 6.133974680154257517e+36
9.518068466639169856e+03 6.135111242571030865e+36
9.515955084691999218e+03 6.136781059654676568e+36
9.513842641042716423e+03 6.138723744910854654e+36
9.511731135066582283e+03 6.140762519529401504e+36
9.509620566139410585e+03 6.142988741462861751e+36
9.507510933637573544e+03 6.145224555060149640e+36
9.505402236937994530e+03 6.146935193957884257e+36
9.503294475418144430e+03 6.149066946742875859e+36
9.501187648456058014e+03 6.151105779069384552e+36
9.499081755430310295e+03 6.153084617724301456e+36
9.496976795720029259e+03 6.154985818819636799e+36
9.494872768704899499e+03 6.156485406165327916e+36
9.492769673765149491e+03 6.158059392203250871e+36
9.490667510281555224e+03 6.160223553637803255e+36
9.488566277635449296e+03 6.162855443629077360e+36
9.486465975208702730e+03 6.165517925146087264e+36
9.484366602383737700e+03 6.167891956975542516e+36
9.482268158543523896e+03 6.170554405143014965e+36
9.480170643071576706e+03 6.173542902472569283e+36
9.478074055351951756e+03 6.176580167022566324e+36
9.475978394769259467e+03 6.179430432897348379e+36
9.473883660708646858e+03 6.182026686077406523e+36
9.471789852555803009e+03 6.184787688523965283e+36
9.469696969696969973e+03 6.187697723478035348e+36
9.467605011518920946e+03 6.190993122197196362e+36
9.465513977408973005e+03 6.194505880360253630e+36
9.463423866754992559e+03 6.198109166317423940e+36
9.461334678945377163e+03 6.201618430677280763e+36
9.459246413369068250e+03 6.205217319899523497e+36
9.457159069415547492e+03 6.209145753860143683e+36
9.455072646474834983e+03 6.213517298347699861e+36
9.452987143937483779e+03 6.217734170404095382e+36
9.450902561194594455e+03 6.221416621364583878e+36
9.448818897637795089e+03 6.224805912953598186e+36
9.446736152659255822e+03 6.228029086955514956e+36
9.444654325651681575e+03 6.231570939017423365e+36
9.442573416008310232e+03 6.233022186893627816e+36
9.440493423122914464e+03 6.229445040595171812e+36
9.438414346389807179e+03 6.222488712707810421e+36
9.436336185203825153e+03 6.221607562029443806e+36
9.434258938960343585e+03 6.222161813573732382e+36
9.432182607055272456e+03 6.222644209624315201e+36
9.430107188885047435e+03 6.225898919984049680e+36
9.428032683846637156e+03 6.226737994921652577e+36
9.425959091337543214e+03 6.224541961984731237e+36
9.423886410755796533e+03 6.221470127461566188e+36
9.421814641499951904e+03 6.220848766114153349e+36
9.419743782969102540e+03 6.225277319641412800e+36
9.417673834562863703e+03 6.228127533031528060e+36
9.415604795681376345e+03 6.232897227574426478e+36
9.413536665725312560e+03 6.235830148731356584e+36
9.411469444095871950e+03 6.238713423864615104e+36
9.409403130194774349e+03 6.240848613080538273e+36
9.407337723424270735e+03 6.241205766559073714e+36
9.405273223187134136e+03 6.242221419557601903e+36
9.403209628886659630e+03 6.240578134010737441e+36
9.401146939926671621e+03 6.233600228379599676e+36
9.399085155711511106e+03 6.220467803794184559e+36
9.397024275646044771e+03 6.213307297736125543e+36
9.394964299135663168e+03 6.215965103556912724e+36
9.392905225586275265e+03 6.220813191397427538e+36
9.390847054404306618e+03 6.225467295387354697e+36
9.388789784996713934e+03 6.228892416821555521e+36
9.386733416770965050e+03 6.231997540923503076e+36
9.384677949135044400e+03 6.234799892337358246e+36
9.382623381497467562e+03 6.238262730693614533e+36
9.380569713267253974e+03 6.241816846180581757e+36
9.378516943853945122e+03 6.244632122553623565e+36
9.376465072667604545e+03 6.247295531670452989e+36
9.374414099118805098e+03 6.249015086864741927e+36
9.372364022618638046e+03 6.251263256863397587e+36
9.370314842578711250e+03 6.253129391845754349e+36
9.368266558411141887e+03 6.254843424942890912e+36
9.366219169528567363e+03 6.256332794243317018e+36
9.364172675344132585e+03 6.257571989490681903e+36
9.362127075271502690e+03 6.259612347264778188e+36
9.360082368724844855e+03 6.262184879357357822e+36
9.358038555118846489e+03 6.265243243319668082e+36
9.355995633868704317e+03 6.268347085153110592e+36
9.353953604390122564e+03 6.271147798227900560e+36
9.351912466099316589e+03 6.273116850887821791e+36
9.349872218413016526e+03 6.274560798482834058e+36
9.347832860748449093e+03 6.276260315500336581e+36
9.345794392523364877e+03 6.278151110616678343e+36
9.343756813156009230e+03 6.280170247501815979e+36
9.341720122065142277e+03 6.282317360703693578e+36
9.339684318670028006e+03 6.282513767038834699e+36
9.337649402390439718e+03 6.281640283282603818e+36
9.335615372646647302e+03 6.280231452353541110e+36
9.333582228859437237e+03 6.280699066322389580e+36
9.331549970450092587e+03 6.282200589297055124e+36
9.329518596840402097e+03 6.284115228881680522e+36
9.327488107452663826e+03 6.286880079468278657e+36
9.325458501709668781e+03 6.288938733895484171e+36
9.323429779034713647e+03 6.290937462775590794e+36
9.321401938851602608e+03 6.292844389828067146e+36
9.319374980584636432e+03 6.292747745993254870e+36
9.317348903658610652e+03 6.292359823612888063e+36
9.315323707498835574e+03 6.291619408282283795e+36
9.313299391531107176e+03 6.293134745286006803e+36
9.311275955181725294e+03 6.295033939847868438e+36
9.309253397877489988e+03 6.297088950139962082e+36
9.307231719045699720e+03 6.299814020897097594e+36
9.305210918114144079e+03 6.301902986747151801e+36
9.303190994511116514e+03 6.303731699514791001e+36
9.301171947665405241e+03 6.305846877569513245e+36
9.299153777006291421e+03 6.308365498285315831e+36
9.297136481963554616e+03 6.310498678561332333e+36
9.295120061967467336e+03 6.312879365711678317e+36
9.293104516448793220e+03 6.315258153871357864e+36
9.291089844838799763e+03 6.317575965437363666e+36
9.289076046569234677e+03 6.319996206951370006e+36
9.287063121072345893e+03 6.322500034657216347e+36
9.285051067780872472e+03 6.325245318063107138e+36
9.283039886128044600e+03 6.328122510144644114e+36
9.281029575547579952e+03 6.330713985700238986e+36
9.279020135473694609e+03 6.333219020115626336e+36
9.277011565341084861e+03 6.335573706143595213e+36
9.275003864584943585e+03 6.338284092292871822e+36
9.272997032640949328e+03 6.341564091499198911e+36
9.270991068945271763e+03 6.344963058534304856e+36
9.268985972934560778e+03 6.348899290105009053e+36
9.266981744045964660e+03 6.353429918616283314e+36
9.264978381717110096e+03 6.357894394862637261e+36
9.262975885386111258e+03 6.362568915082640307e+36
9.260974254491571628e+03 6.366960854219804860e+36
9.258973488472578538e+03 6.371823181877891232e+36
9.256973586768697714e+03 6.376776082657686372e+36
9.254974548819991469e+03 6.381890006696230917e+36
9.252976374066993230e+03 6.386768737780210035e+36
9.250979061950722098e+03 6.391025360824167662e+36
9.248982611912690118e+03 6.394859686699348678e+36
9.246987023394876815e+03 6.394308245549407472e+36
9.244992295839752842e+03 6.391586165443670128e+36
9.242998428690267247e+03 6.390007324311844001e+36
9.241005421389847470e+03 6.391870232558113507e+36
9.239013273382401167e+03 6.394694400887433303e+36
9.237021984112321661e+03 6.397270838259277129e+36
9.235031553024473396e+03 6.400509930079972621e+36
9.233041979564199210e+03 6.403452437302414488e+36
9.231053263177327608e+03 6.402469468513149635e+36
9.229065403310158217e+03 6.400663531082487036e+36
9.227078399409465419e+03 6.401092482344392220e+36
9.225092250922509265e+03 6.404761649743855762e+36
9.223106957297015470e+03 6.405168712251358771e+36
9.221122517981188139e+03 6.402889868738855486e+36
9.219138932423711594e+03 6.396242779484523749e+36
9.217156200073737637e+03 6.392665762222448626e+36
9.215174320380892823e+03 6.392730994409648791e+36
9.213193292795283924e+03 6.393386004363655256e+36
9.211213116767479733e+03 6.397124741670072261e+36
9.209233791748525618e+03 6.394707771434904580e+36
9.207255317189945345e+03 6.387574509198134694e+36
9.205277692543724697e+03 6.375392835014556335e+36
9.203300917262324219e+03 6.362167835948240349e+36
9.201324990798675572e+03 6.357686876155746598e+36
9.199349912606176076e+03 6.353273755641649592e+36
9.197375682138695993e+03 6.353718314460267716e+36
9.195402298850574880e+03 6.354317669593114259e+36
9.193429762196616139e+03 6.352662628494004425e+36
9.191458071632096107e+03 6.351340054211429713e+36
9.189487226612754966e+03 6.355952126166470381e+36
9.187517226594800377e+03 6.358068347913256630e+36
9.185548071034903842e+03 6.362311631102203153e+36
9.183579759390209801e+03 6.365967972212803649e+36
9.181612291118321082e+03 6.367100142796234436e+36
9.179645665677304351e+03 6.368992858431831409e+36
9.177679882525697394e+03 6.369270777480678425e+36
9.175714941122496384e+03 6.370142400335950129e+36
9.173750840927159516e+03 6.372522287640028979e+36
9.171787581399614282e+03 6.375839508658864306e+36
9.169825162000244745e+03 6.379229949160231026e+36
9.167863582189896988e+03 6.383685989816059054e+36
9.165902841429880937e+03 6.387117145331855603e+36
9.163942939181966722e+03 6.391495293129934862e+36
9.161983874908379221e+03 6.395485235569043262e+36
9.160025648071814430e+03 6.397858483696755680e+36
9.158068258135417636e+03 6.402496089842049643e+36
9.156111704562794330e+03 6.405274118895802078e+36
9.154155986818015663e+03 6.409303759357008672e+36
9.152201104365600258e+03 6.413967306887018810e+36
9.150247056670528764e+03 6.416414146971655763e+36
